3997.94312 0.00000
3995.88973 0.00000
3993.83634 0.00026
3991.78296 0.00132
3989.72957 0.00204
3987.67618 0.00199
3985.62280 0.00162
3983.56941 0.00151
3981.51603 0.00196
3979.46264 0.00267
3977.40925 0.00297
3975.35587 0.00287
3973.30248 0.00266
3971.24909 0.00258
3969.19571 0.00230
3967.14232 0.00186
3965.08893 0.00194
3963.03555 0.00233
3960.98216 0.00278
3958.92878 0.00314
3956.87539 0.00327
3954.82200 0.00319
3952.76862 0.00245
3950.71523 0.00185
3948.66184 0.00195
3946.60846 0.00157
3944.55507 0.00137
3942.50169 0.00184
3940.44830 0.00205
3938.39491 0.00215
3936.34153 0.00283
3934.28814 0.00340
3932.23475 0.00247
3930.18137 0.00106
3928.12798 0.00113
3926.07460 0.00195
3924.02121 0.00271
3921.96782 0.00320
3919.91444 0.00284
3917.86105 0.00212
3915.80766 0.00221
3913.75428 0.00249
3911.70089 0.00261
3909.64750 0.00294
3907.59412 0.00333
3905.54073 0.00395
3903.48735 0.00408
3901.43396 0.00299
3899.38057 0.00201
3897.32719 0.00090
3895.27380 0.00027
3893.22041 0.00101
3891.16703 0.00201
3889.11364 0.00279
3887.06026 0.00327
3885.00687 0.00250
3882.95348 0.00188
3880.90010 0.00207
3878.84671 0.00220
3876.79332 0.00217
3874.73994 0.00161
3872.68655 0.00101
3870.63317 0.00078
3868.57978 0.00079
3866.52639 0.00177
3864.47301 0.00336
3862.41962 0.00358
3860.36623 0.00235
3858.31285 0.00208
3856.25946 0.00363
3854.20607 0.00504
3852.15269 0.00379
3850.09930 0.00242
3848.04592 0.00159
3845.99253 0.00129
3843.93914 0.00169
3841.88576 0.00227
3839.83237 0.00246
3837.77898 0.00251
3835.72560 0.00321
3833.67221 0.00334
3831.61883 0.00185
3829.56544 0.00037
3827.51205 0.00002
3825.45867 0.00008
3823.40528 0.00044
3821.35189 0.00100
3819.29851 0.00130
3817.24512 0.00151
3815.19174 0.00110
3813.13835 0.00056
3811.08496 0.00085
3809.03158 0.00158
3806.97819 0.00226
3804.92480 0.00321
3802.87142 0.00354
3800.81803 0.00150
3798.76464 0.00013
3796.71126 0.00070
3794.65787 0.00116
3792.60449 0.00103
3790.55110 0.00125
3788.49771 0.00216
3786.44433 0.00278
3784.39094 0.00244
3782.33755 0.00189
3780.28417 0.00215
3778.23078 0.00288
3776.17740 0.00269
3774.12401 0.00182
3772.07062 0.00125
3770.01724 0.00106
3767.96385 0.00091
3765.91046 0.00160
3763.85708 0.00307
3761.80369 0.00406
3759.75031 0.00401
3757.69692 0.00354
3755.64353 0.00394
3753.59015 0.00459
3751.53676 0.00353
3749.48337 0.00138
3747.42999 0.00117
3745.37660 0.00130
3743.32321 0.00091
3741.26983 0.00052
3739.21644 0.00042
3737.16306 0.00047
3735.10967 0.00000
3733.05628 0.00044
3731.00290 0.00209
3728.94951 0.00339
3726.89612 0.00364
3724.84274 0.00276
3722.78935 0.00194
3720.73597 0.00194
3718.68258 0.00239
3716.62919 0.00310
3714.57581 0.00389
3712.52242 0.00362
3710.46903 0.00246
3708.41565 0.00236
3706.36226 0.00276
3704.30888 0.00292
3702.25549 0.00256
3700.20210 0.00186
3698.14872 0.00079
3696.09533 0.00000
3694.04194 0.00050
3691.98856 0.00149
3689.93517 0.00205
3687.88179 0.00269
3685.82840 0.00281
3683.77501 0.00221
3681.72163 0.00156
3679.66824 0.00168
3677.61485 0.00311
3675.56147 0.00339
3673.50808 0.00128
3671.45469 0.00094
3669.40131 0.00167
3667.34792 0.00179
3665.29454 0.00216
3663.24115 0.00289
3661.18776 0.00318
3659.13438 0.00226
3657.08099 0.00097
3655.02760 0.00169
3652.97422 0.00388
3650.92083 0.00495
3648.86745 0.00296
3646.81406 0.00142
3644.76067 0.00154
3642.70729 0.00176
3640.65390 0.00264
3638.60051 0.00394
3636.54713 0.00456
3634.49374 0.00450
3632.44036 0.00477
3630.38697 0.00575
3628.33358 0.00494
3626.28020 0.00244
3624.22681 0.00162
3622.17342 0.00218
3620.12004 0.00347
3618.06665 0.00460
3616.01326 0.00443
3613.95988 0.00337
3611.90649 0.00309
3609.85311 0.00384
3607.79972 0.00361
3605.74633 0.00280
3603.69295 0.00313
3601.63956 0.00404
3599.58617 0.00447
3597.53279 0.00417
3595.47940 0.00334
3593.42602 0.00240
3591.37263 0.00197
3589.31924 0.00234
3587.26586 0.00344
3585.21247 0.00414
3583.15908 0.00379
3581.10570 0.00315
3579.05231 0.00309
3576.99893 0.00344
3574.94554 0.00356
3572.89215 0.00352
3570.83877 0.00354
3568.78538 0.00351
3566.73199 0.00370
3564.67861 0.00422
3562.62522 0.00402
3560.57183 0.00288
3558.51845 0.00177
3556.46506 0.00135
3554.41168 0.00173
3552.35829 0.00263
3550.30490 0.00325
3548.25152 0.00391
3546.19813 0.00525
3544.14474 0.00619
3542.09136 0.00569
3540.03797 0.00428
3537.98459 0.00373
3535.93120 0.00493
3533.87781 0.00614
3531.82443 0.00612
3529.77104 0.00512
3527.71765 0.00432
3525.66427 0.00422
3523.61088 0.00369
3521.55750 0.00306
3519.50411 0.00365
3517.45072 0.00439
3515.39734 0.00388
3513.34395 0.00353
3511.29056 0.00406
3509.23718 0.00416
3507.18379 0.00347
3505.13040 0.00281
3503.07702 0.00259
3501.02363 0.00286
3498.97025 0.00355
3496.91686 0.00400
3494.86347 0.00417
3492.81009 0.00446
3490.75670 0.00501
3488.70331 0.00601
3486.64993 0.00625
3484.59654 0.00490
3482.54316 0.00368
3480.48977 0.00399
3478.43638 0.00426
3476.38300 0.00348
3474.32961 0.00347
3472.27622 0.00527
3470.22284 0.00625
3468.16945 0.00497
3466.11607 0.00368
3464.06268 0.00352
3462.00929 0.00387
3459.95591 0.00462
3457.90252 0.00445
3455.84913 0.00304
3453.79575 0.00252
3451.74236 0.00288
3449.68897 0.00311
3447.63559 0.00369
3445.58220 0.00425
3443.52882 0.00408
3441.47543 0.00343
3439.42204 0.00303
3437.36866 0.00339
3435.31527 0.00416
3433.26188 0.00446
3431.20850 0.00428
3429.15511 0.00392
3427.10173 0.00380
3425.04834 0.00502
3422.99495 0.00654
3420.94157 0.00635
3418.88818 0.00500
3416.83479 0.00372
3414.78141 0.00299
3412.72802 0.00303
3410.67464 0.00391
3408.62125 0.00534
3406.56786 0.00625
3404.51448 0.00586
3402.46109 0.00492
3400.40770 0.00465
3398.35432 0.00500
3396.30093 0.00465
3394.24754 0.00423
3392.19416 0.00548
3390.14077 0.00626
3388.08739 0.00459
3386.03400 0.00283
3383.98061 0.00261
3381.92723 0.00297
3379.87384 0.00355
3377.82045 0.00415
3375.76707 0.00416
3373.71368 0.00382
3371.66030 0.00374
3369.60691 0.00438
3367.55352 0.00512
3365.50014 0.00506
3363.44675 0.00470
3361.39336 0.00483
3359.33998 0.00535
3357.28659 0.00543
3355.23321 0.00461
3353.17982 0.00392
3351.12643 0.00423
3349.07305 0.00475
3347.01966 0.00475
3344.96627 0.00429
3342.91289 0.00366
3340.85950 0.00324
3338.80611 0.00344
3336.75273 0.00424
3334.69934 0.00458
3332.64596 0.00437
3330.59257 0.00434
3328.53918 0.00407
3326.48580 0.00366
3324.43241 0.00372
3322.37902 0.00379
3320.32564 0.00380
3318.27225 0.00404
3316.21887 0.00439
3314.16548 0.00428
3312.11209 0.00372
3310.05871 0.00343
3308.00532 0.00293
3305.95193 0.00252
3303.89855 0.00323
3301.84516 0.00427
3299.79178 0.00497
3297.73839 0.00527
3295.68500 0.00488
3293.63162 0.00419
3291.57823 0.00361
3289.52484 0.00337
3287.47146 0.00365
3285.41807 0.00371
3283.36469 0.00363
3281.31130 0.00410
3279.25791 0.00478
3277.20453 0.00534
3275.15114 0.00564
3273.09775 0.00537
3271.04437 0.00454
3268.99098 0.00409
3266.93759 0.00429
3264.88421 0.00449
3262.83082 0.00424
3260.77744 0.00342
3258.72405 0.00310
3256.67066 0.00345
3254.61728 0.00351
3252.56389 0.00368
3250.51050 0.00413
3248.45712 0.00404
3246.40373 0.00351
3244.35035 0.00330
3242.29696 0.00366
3240.24357 0.00448
3238.19019 0.00488
3236.13680 0.00422
3234.08341 0.00378
3232.03003 0.00416
3229.97664 0.00440
3227.92326 0.00395
3225.86987 0.00319
3223.81648 0.00274
3221.76310 0.00264
3219.70971 0.00277
3217.65632 0.00321
3215.60294 0.00371
3213.54955 0.00364
3211.49616 0.00353
3209.44278 0.00405
3207.38939 0.00413
3205.33601 0.00351
3203.28262 0.00323
3201.22923 0.00301
3199.17585 0.00253
3197.12246 0.00249
3195.06907 0.00242
3193.01569 0.00212
3190.96230 0.00235
3188.90892 0.00273
3186.85553 0.00268
3184.80214 0.00236
3182.74876 0.00197
3180.69537 0.00190
3178.64198 0.00202
3176.58860 0.00168
3174.53521 0.00123
3172.48183 0.00161
3170.42844 0.00274
3168.37505 0.00316
3166.32167 0.00282
3164.26828 0.00271
3162.21489 0.00238
3160.16151 0.00185
3158.10812 0.00155
3156.05473 0.00149
3154.00135 0.00186
3151.94796 0.00241
3149.89458 0.00256
3147.84119 0.00218
3145.78780 0.00164
3143.73442 0.00143
3141.68103 0.00170
3139.62764 0.00200
3137.57426 0.00188
3135.52087 0.00137
3133.46749 0.00094
3131.41410 0.00098
3129.36071 0.00155
3127.30733 0.00215
3125.25394 0.00194
3123.20055 0.00117
3121.14717 0.00091
3119.09378 0.00111
3117.04040 0.00119
3114.98701 0.00143
3112.93362 0.00157
3110.88024 0.00121
3108.82685 0.00091
3106.77346 0.00069
3104.72008 0.00054
3102.66669 0.00061
3100.61330 0.00065
3098.55992 0.00074
3096.50653 0.00094
3094.45315 0.00090
3092.39976 0.00071
3090.34637 0.00081
3088.29299 0.00085
3086.23960 0.00078
3084.18621 0.00097
3082.13283 0.00102
3080.07944 0.00108
3078.02606 0.00164
3075.97267 0.00200
3073.91928 0.00178
3071.86590 0.00154
3069.81251 0.00159
3067.75912 0.00164
3065.70574 0.00148
3063.65235 0.00134
3061.59897 0.00118
3059.54558 0.00107
3057.49219 0.00159
3055.43881 0.00215
3053.38542 0.00186
3051.33203 0.00129
3049.27865 0.00084
3047.22526 0.00078
3045.17187 0.00109
3043.11849 0.00126
3041.06510 0.00122
3039.01172 0.00092
3036.95833 0.00058
3034.90494 0.00062
3032.85156 0.00085
3030.79817 0.00087
3028.74478 0.00055
3026.69140 0.00008
3024.63801 0.00001
3022.58463 0.00046
3020.53124 0.00073
3018.47785 0.00067
3016.42447 0.00085
3014.37108 0.00103
3012.31769 0.00083
3010.26431 0.00060
3008.21092 0.00050
3006.15754 0.00069
3004.10415 0.00114
3002.05076 0.00104
2999.99738 0.00058
2997.94399 0.00088
2995.89060 0.00160
2993.83722 0.00161
2991.78383 0.00106
2989.73044 0.00079
2987.67706 0.00101
2985.62367 0.00150
2983.57029 0.00171
2981.51690 0.00161
2979.46351 0.00172
2977.41013 0.00192
2975.35674 0.00204
2973.30335 0.00205
2971.24997 0.00208
2969.19658 0.00232
2967.14320 0.00236
2965.08981 0.00238
2963.03642 0.00273
2960.98304 0.00290
2958.92965 0.00297
2956.87626 0.00359
2954.82288 0.00429
2952.76949 0.00478
2950.71611 0.00523
2948.66272 0.00543
2946.60933 0.00567
2944.55595 0.00589
2942.50256 0.00577
2940.44917 0.00569
2938.39579 0.00576
2936.34240 0.00582
2934.28901 0.00651
2932.23563 0.00742
2930.18224 0.00730
2928.12886 0.00673
2926.07547 0.00654
2924.02208 0.00648
2921.96870 0.00635
2919.91531 0.00623
2917.86192 0.00607
2915.80854 0.00581
2913.75515 0.00521
2911.70177 0.00441
2909.64838 0.00393
2907.59499 0.00362
2905.54161 0.00340
2903.48822 0.00351
2901.43483 0.00353
2899.38145 0.00299
2897.32806 0.00250
2895.27468 0.00246
2893.22129 0.00248
2891.16790 0.00230
2889.11452 0.00206
2887.06113 0.00211
2885.00774 0.00253
2882.95436 0.00294
2880.90097 0.00298
2878.84758 0.00275
2876.79420 0.00246
2874.74081 0.00224
2872.68743 0.00245
2870.63404 0.00281
2868.58065 0.00274
2866.52727 0.00258
2864.47388 0.00275
2862.42049 0.00289
2860.36711 0.00309
2858.31372 0.00343
2856.26034 0.00334
2854.20695 0.00278
2852.15356 0.00229
2850.10018 0.00226
2848.04679 0.00243
2845.99340 0.00224
2843.94002 0.00177
2841.88663 0.00141
2839.83325 0.00118
2837.77986 0.00109
2835.72647 0.00101
2833.67309 0.00073
2831.61970 0.00061
2829.56631 0.00067
2827.51293 0.00047
2825.45954 0.00007
2823.40616 0.00000
2821.35277 0.00040
2819.29938 0.00087
2817.24600 0.00092
2815.19261 0.00067
2813.13922 0.00058
2811.08584 0.00045
2809.03245 0.00012
2806.97906 0.00001
2804.92568 0.00029
2802.87229 0.00070
2800.81891 0.00093
2798.76552 0.00075
2796.71213 0.00066
2794.65875 0.00105
2792.60536 0.00132
2790.55197 0.00127
2788.49859 0.00109
2786.44520 0.00075
2784.39182 0.00063
2782.33843 0.00087
2780.28504 0.00086
2778.23166 0.00054
2776.17827 0.00036
2774.12488 0.00047
2772.07150 0.00084
2770.01811 0.00111
2767.96473 0.00085
2765.91134 0.00039
2763.85795 0.00027
2761.80457 0.00048
2759.75118 0.00081
2757.69779 0.00123
2755.64441 0.00158
2753.59102 0.00144
2751.53763 0.00090
2749.48425 0.00051
2747.43086 0.00047
2745.37748 0.00064
2743.32409 0.00078
2741.27070 0.00071
2739.21732 0.00042
2737.16393 0.00008
2735.11054 0.00000
2733.05716 0.00015
2731.00377 0.00027
2728.95039 0.00042
2726.89700 0.00071
2724.84361 0.00071
2722.79023 0.00041
2720.73684 0.00026
2718.68345 0.00036
2716.63007 0.00052
2714.57668 0.00072
2712.52330 0.00079
2710.46991 0.00057
2708.41652 0.00035
2706.36314 0.00025
2704.30975 0.00027
2702.25636 0.00047
2700.20298 0.00058
2698.14959 0.00044
2696.09620 0.00029
2694.04282 0.00028
2691.98943 0.00049
2689.93605 0.00083
2687.88266 0.00080
2685.82927 0.00044
2683.77589 0.00032
2681.72250 0.00052
2679.66911 0.00078
2677.61573 0.00072
2675.56234 0.00038
2673.50896 0.00021
2671.45557 0.00030
2669.40218 0.00038
2667.34880 0.00039
2665.29541 0.00040
2663.24202 0.00035
2661.18864 0.00047
2659.13525 0.00077
2657.08187 0.00073
2655.02848 0.00030
2652.97509 0.00007
2650.92171 0.00015
2648.86832 0.00023
2646.81493 0.00036
2644.76155 0.00059
2642.70816 0.00055
2640.65477 0.00038
2638.60139 0.00053
2636.54800 0.00076
2634.49462 0.00077
2632.44123 0.00073
2630.38784 0.00069
2628.33446 0.00073
2626.28107 0.00089
2624.22768 0.00095
2622.17430 0.00087
2620.12091 0.00074
2618.06753 0.00056
2616.01414 0.00045
2613.96075 0.00043
2611.90737 0.00039
2609.85398 0.00036
2607.80059 0.00045
2605.74721 0.00059
2603.69382 0.00056
2601.64044 0.00045
2599.58705 0.00064
2597.53366 0.00089
2595.48028 0.00073
2593.42689 0.00045
2591.37350 0.00029
2589.32012 0.00024
2587.26673 0.00033
2585.21334 0.00051
2583.15996 0.00065
2581.10657 0.00069
2579.05319 0.00071
2576.99980 0.00068
2574.94641 0.00076
2572.89303 0.00100
2570.83964 0.00102
2568.78625 0.00067
2566.73287 0.00059
2564.67948 0.00090
2562.62610 0.00103
2560.57271 0.00107
2558.51932 0.00114
2556.46594 0.00106
2554.41255 0.00100
2552.35916 0.00097
2550.30578 0.00093
2548.25239 0.00104
2546.19901 0.00120
2544.14562 0.00122
2542.09223 0.00115
2540.03885 0.00117
2537.98546 0.00120
2535.93207 0.00110
2533.87869 0.00094
2531.82530 0.00068
2529.77191 0.00043
2527.71853 0.00032
2525.66514 0.00035
2523.61176 0.00044
2521.55837 0.00043
2519.50498 0.00048
2517.45160 0.00075
2515.39821 0.00110
2513.34482 0.00146
2511.29144 0.00155
2509.23805 0.00125
2507.18467 0.00091
2505.13128 0.00089
2503.07789 0.00115
2501.02451 0.00137
2498.97112 0.00141
2496.91773 0.00142
2494.86435 0.00139
2492.81096 0.00121
2490.75758 0.00083
2488.70419 0.00029
2486.65080 0.00000
2484.59742 0.00006
2482.54403 0.00039
2480.49064 0.00088
2478.43726 0.00110
2476.38387 0.00086
2474.33048 0.00064
2472.27710 0.00083
2470.22371 0.00118
2468.17033 0.00137
2466.11694 0.00136
2464.06355 0.00116
2462.01017 0.00091
2459.95678 0.00077
2457.90339 0.00091
2455.85001 0.00122
2453.79662 0.00128
2451.74324 0.00096
2449.68985 0.00067
2447.63646 0.00053
2445.58308 0.00051
2443.52969 0.00069
2441.47630 0.00087
2439.42292 0.00084
2437.36953 0.00073
2435.31615 0.00067
2433.26276 0.00064
2431.20937 0.00061
2429.15599 0.00061
2427.10260 0.00085
2425.04921 0.00111
2422.99583 0.00094
2420.94244 0.00048
2418.88906 0.00030
2416.83567 0.00041
2414.78228 0.00044
2412.72890 0.00056
2410.67551 0.00077
2408.62212 0.00094
2406.56874 0.00107
2404.51535 0.00077
2402.46196 0.00023
2400.40858 0.00004
2398.35519 0.00017
2396.30181 0.00051
2394.24842 0.00100
2392.19503 0.00115
2390.14165 0.00096
2388.08826 0.00085
2386.03487 0.00085
2383.98149 0.00083
2381.92810 0.00086
2379.87472 0.00122
2377.82133 0.00170
2375.76794 0.00183
2373.71456 0.00172
2371.66117 0.00180
2369.60778 0.00240
2367.55440 0.00304
2365.50101 0.00312
2363.44763 0.00302
2361.39424 0.00340
2359.34085 0.00380
2357.28747 0.00333
2355.23408 0.00269
2353.18069 0.00251
2351.12731 0.00237
2349.07392 0.00228
2347.02053 0.00241
2344.96715 0.00233
2342.91376 0.00204
2340.86038 0.00205
2338.80699 0.00198
2336.75360 0.00206
2334.70022 0.00254
2332.64683 0.00273
2330.59344 0.00240
2328.54006 0.00164
2326.48667 0.00068
2324.43329 0.00013
2322.37990 0.00066
2320.32651 0.00153
2318.27313 0.00131
2316.21974 0.00059
2314.16635 0.00064
2312.11297 0.00104
2310.05958 0.00102
2308.00620 0.00087
2305.95281 0.00093
2303.89942 0.00081
2301.84604 0.00058
2299.79265 0.00048
2297.73926 0.00034
2295.68588 0.00033
2293.63249 0.00054
2291.57910 0.00062
2289.52572 0.00057
2287.47233 0.00058
2285.41895 0.00036
2283.36556 0.00000
2281.31217 0.00005
2279.25879 0.00047
2277.20540 0.00079
2275.15201 0.00075
2273.09863 0.00053
2271.04524 0.00026
2268.99186 0.00010
2266.93847 0.00043
2264.88508 0.00097
2262.83170 0.00108
2260.77831 0.00099
2258.72492 0.00167
2256.67154 0.00312
2254.61815 0.00460
2252.56477 0.00629
2250.51138 0.00854
2248.45799 0.01100
2246.40461 0.01346
2244.35122 0.01531
2242.29783 0.01558
2240.24445 0.01447
2238.19106 0.01259
2236.13767 0.01002
2234.08429 0.00734
2232.03090 0.00541
2229.97752 0.00448
2227.92413 0.00392
2225.87074 0.00312
2223.81736 0.00250
2221.76397 0.00230
2219.71058 0.00203
2217.65720 0.00167
2215.60381 0.00156
2213.55043 0.00163
2211.49704 0.00167
2209.44365 0.00180
2207.39027 0.00199
2205.33688 0.00215
2203.28349 0.00229
2201.23011 0.00234
2199.17672 0.00229
2197.12334 0.00220
2195.06995 0.00191
2193.01656 0.00146
2190.96318 0.00127
2188.90979 0.00130
2186.85640 0.00137
2184.80302 0.00144
2182.74963 0.00135
2180.69624 0.00118
2178.64286 0.00116
2176.58947 0.00115
2174.53609 0.00095
2172.48270 0.00068
2170.42931 0.00060
2168.37593 0.00058
2166.32254 0.00033
2164.26915 0.00011
2162.21577 0.00026
2160.16238 0.00065
2158.10900 0.00095
2156.05561 0.00100
2154.00222 0.00074
2151.94884 0.00050
2149.89545 0.00066
2147.84206 0.00078
2145.78868 0.00067
2143.73529 0.00065
2141.68191 0.00064
2139.62852 0.00062
2137.57513 0.00060
2135.52175 0.00039
2133.46836 0.00008
2131.41497 0.00000
2129.36159 0.00017
2127.30820 0.00046
2125.25481 0.00078
2123.20143 0.00092
2121.14804 0.00084
2119.09466 0.00063
2117.04127 0.00046
2114.98788 0.00048
2112.93450 0.00063
2110.88111 0.00087
2108.82772 0.00096
2106.77434 0.00082
2104.72095 0.00066
2102.66757 0.00061
2100.61418 0.00055
2098.56079 0.00033
2096.50741 0.00015
2094.45402 0.00021
2092.40063 0.00035
2090.34725 0.00048
2088.29386 0.00064
2086.24048 0.00072
2084.18709 0.00064
2082.13370 0.00048
2080.08032 0.00036
2078.02693 0.00033
2075.97354 0.00027
2073.92016 0.00015
2071.86677 0.00003
2069.81338 0.00011
2067.76000 0.00029
2065.70661 0.00028
2063.65323 0.00011
2061.59984 0.00003
2059.54645 0.00019
2057.49307 0.00069
2055.43968 0.00107
2053.38629 0.00086
2051.33291 0.00046
2049.27952 0.00021
2047.22614 0.00010
2045.17275 0.00025
2043.11936 0.00048
2041.06598 0.00047
2039.01259 0.00022
2036.95920 0.00000
2034.90582 0.00006
2032.85243 0.00020
2030.79905 0.00034
2028.74566 0.00071
2026.69227 0.00107
2024.63889 0.00106
2022.58550 0.00089
2020.53211 0.00084
2018.47873 0.00089
2016.42534 0.00097
2014.37195 0.00102
2012.31857 0.00107
2010.26518 0.00092
2008.21180 0.00050
2006.15841 0.00019
2004.10502 0.00039
2002.05164 0.00090
1999.99825 0.00100
1997.94486 0.00060
1995.89148 0.00041
1993.83809 0.00056
1991.78471 0.00058
1989.73132 0.00056
1987.67793 0.00059
1985.62455 0.00051
1983.57116 0.00054
1981.51777 0.00070
1979.46439 0.00068
1977.41100 0.00051
1975.35762 0.00040
1973.30423 0.00043
1971.25084 0.00060
1969.19746 0.00067
1967.14407 0.00059
1965.09068 0.00064
1963.03730 0.00068
1960.98391 0.00056
1958.93053 0.00045
1956.87714 0.00041
1954.82375 0.00042
1952.77037 0.00035
1950.71698 0.00036
1948.66359 0.00066
1946.61021 0.00090
1944.55682 0.00083
1942.50343 0.00070
1940.45005 0.00065
1938.39666 0.00066
1936.34328 0.00058
1934.28989 0.00037
1932.23650 0.00015
1930.18312 0.00007
1928.12973 0.00016
1926.07634 0.00055
1924.02296 0.00103
1921.96957 0.00111
1919.91619 0.00103
1917.86280 0.00095
1915.80941 0.00053
1913.75603 0.00014
1911.70264 0.00012
1909.64925 0.00035
1907.59587 0.00039
1905.54248 0.00018
1903.48910 0.00019
1901.43571 0.00030
1899.38232 0.00020
1897.32894 0.00005
1895.27555 0.00000
1893.22216 0.00007
1891.16878 0.00038
1889.11539 0.00078
1887.06200 0.00083
1885.00862 0.00062
1882.95523 0.00039
1880.90185 0.00034
1878.84846 0.00049
1876.79507 0.00053
1874.74169 0.00035
1872.68830 0.00031
1870.63491 0.00042
1868.58153 0.00022
1866.52814 0.00000
1864.47476 0.00015
1862.42137 0.00033
1860.36798 0.00042
1858.31460 0.00053
1856.26121 0.00067
1854.20782 0.00074
1852.15444 0.00069
1850.10105 0.00055
1848.04767 0.00042
1845.99428 0.00037
1843.94089 0.00023
1841.88751 0.00016
1839.83412 0.00021
1837.78073 0.00011
1835.72735 0.00000
1833.67396 0.00012
1831.62057 0.00037
1829.56719 0.00050
1827.51380 0.00046
1825.46042 0.00032
1823.40703 0.00009
1821.35364 0.00014
1819.30026 0.00045
1817.24687 0.00049
1815.19348 0.00028
1813.14010 0.00021
1811.08671 0.00017
1809.03333 0.00004
1806.97994 0.00000
1804.92655 0.00011
1802.87317 0.00039
1800.81978 0.00062
1798.76639 0.00075
1796.71301 0.00106
1794.65962 0.00146
1792.60624 0.00158
1790.55285 0.00103
1788.49946 0.00049
1786.44608 0.00037
1784.39269 0.00037
1782.33930 0.00053
1780.28592 0.00078
1778.23253 0.00088
1776.17914 0.00109
1774.12576 0.00157
1772.07237 0.00177
1770.01899 0.00148
1767.96560 0.00133
1765.91221 0.00131
1763.85883 0.00153
1761.80544 0.00189
1759.75205 0.00213
1757.69867 0.00239
1755.64528 0.00264
1753.59190 0.00294
1751.53851 0.00368
1749.48512 0.00493
1747.43174 0.00628
1745.37835 0.00794
1743.32496 0.01001
1741.27158 0.01208
1739.21819 0.01427
1737.16481 0.01652
1735.11142 0.01870
1733.05803 0.02004
1731.00465 0.02032
1728.95126 0.02051
1726.89787 0.02047
1724.84449 0.02018
1722.79110 0.01974
1720.73771 0.01942
1718.68433 0.01892
1716.63094 0.01739
1714.57756 0.01561
1712.52417 0.01456
1710.47078 0.01399
1708.41740 0.01358
1706.36401 0.01318
1704.31062 0.01296
1702.25724 0.01297
1700.20385 0.01274
1698.15047 0.01249
1696.09708 0.01235
1694.04369 0.01196
1691.99031 0.01196
1689.93692 0.01228
1687.88353 0.01279
1685.83015 0.01347
1683.77676 0.01381
1681.72338 0.01381
1679.66999 0.01416
1677.61660 0.01481
1675.56322 0.01565
1673.50983 0.01612
1671.45644 0.01627
1669.40306 0.01641
1667.34967 0.01650
1665.29628 0.01681
1663.24290 0.01710
1661.18951 0.01707
1659.13613 0.01717
1657.08274 0.01761
1655.02935 0.01808
1652.97597 0.01738
1650.92258 0.01676
1648.86919 0.01727
1646.81581 0.01713
1644.76242 0.01622
1642.70904 0.01619
1640.65565 0.01682
1638.60226 0.01778
1636.54888 0.01852
1634.49549 0.01831
1632.44210 0.01845
1630.38872 0.01923
1628.33533 0.02011
1626.28195 0.02114
1624.22856 0.02255
1622.17517 0.02368
1620.12179 0.02463
1618.06840 0.02605
1616.01501 0.02772
1613.96163 0.02914
1611.90824 0.03068
1609.85485 0.03234
1607.80147 0.03392
1605.74808 0.03536
1603.69470 0.03663
1601.64131 0.03782
1599.58792 0.03902
1597.53454 0.04007
1595.48115 0.04093
1593.42776 0.04166
1591.37438 0.04220
1589.32099 0.04242
1587.26761 0.04221
1585.21422 0.04147
1583.16083 0.04024
1581.10745 0.03899
1579.05406 0.03812
1577.00067 0.03679
1574.94729 0.03428
1572.89390 0.03262
1570.84052 0.03136
1568.78713 0.02956
1566.73374 0.02800
1564.68036 0.02683
1562.62697 0.02638
1560.57358 0.02669
1558.52020 0.02516
1556.46681 0.02270
1554.41342 0.02182
1552.36004 0.02113
1550.30665 0.02035
1548.25327 0.01967
1546.19988 0.01947
1544.14649 0.01955
1542.09311 0.01955
1540.03972 0.01848
1537.98633 0.01741
1535.93295 0.01752
1533.87956 0.01747
1531.82618 0.01665
1529.77279 0.01622
1527.71940 0.01631
1525.66602 0.01664
1523.61263 0.01711
1521.55924 0.01695
1519.50586 0.01653
1517.45247 0.01690
1515.39909 0.01715
1513.34570 0.01708
1511.29231 0.01730
1509.23893 0.01774
1507.18554 0.01741
1505.13215 0.01641
1503.07877 0.01640
1501.02538 0.01685
1498.97200 0.01732
1496.91861 0.01729
1494.86522 0.01705
1492.81184 0.01744
1490.75845 0.01804
1488.70506 0.01799
1486.65168 0.01751
1484.59829 0.01713
1482.54490 0.01697
1480.49152 0.01708
1478.43813 0.01731
1476.38475 0.01753
1474.33136 0.01752
1472.27797 0.01707
1470.22459 0.01702
1468.17120 0.01773
1466.11781 0.01902
1464.06443 0.02070
1462.01104 0.02251
1459.95766 0.02478
1457.90427 0.02863
1455.85088 0.03266
1453.79750 0.03414
1451.74411 0.03487
1449.69072 0.03535
1447.63734 0.03508
1445.58395 0.03427
1443.53057 0.03359
1441.47718 0.03295
1439.42379 0.03223
1437.37041 0.03109
1435.31702 0.02942
1433.26363 0.02817
1431.21025 0.02721
1429.15686 0.02615
1427.10347 0.02527
1425.05009 0.02469
1422.99670 0.02438
1420.94332 0.02428
1418.88993 0.02388
1416.83654 0.02309
1414.78316 0.02263
1412.72977 0.02230
1410.67638 0.02184
1408.62300 0.02157
1406.56961 0.02178
1404.51623 0.02219
1402.46284 0.02269
1400.40945 0.02363
1398.35607 0.02491
1396.30268 0.02592
1394.24929 0.02670
1392.19591 0.02775
1390.14252 0.02913
1388.08914 0.03073
1386.03575 0.03236
1383.98236 0.03387
1381.92898 0.03543
1379.87559 0.03702
1377.82220 0.03841
1375.76882 0.03971
1373.71543 0.04063
1371.66204 0.04078
1369.60866 0.04084
1367.55527 0.04098
1365.50189 0.04112
1363.44850 0.04112
1361.39511 0.04059
1359.34173 0.03984
1357.28834 0.03921
1355.23495 0.03864
1353.18157 0.03807
1351.12818 0.03741
1349.07480 0.03663
1347.02141 0.03576
1344.96802 0.03488
1342.91464 0.03434
1340.86125 0.03410
1338.80786 0.03366
1336.75448 0.03296
1334.70109 0.03219
1332.64771 0.03149
1330.59432 0.03078
1328.54093 0.02988
1326.48755 0.02911
1324.43416 0.02864
1322.38077 0.02833
1320.32739 0.02806
1318.27400 0.02765
1316.22061 0.02709
1314.16723 0.02664
1312.11384 0.02643
1310.06046 0.02629
1308.00707 0.02599
1305.95368 0.02556
1303.90030 0.02527
1301.84691 0.02529
1299.79352 0.02543
1297.74014 0.02547
1295.68675 0.02542
1293.63337 0.02531
1291.57998 0.02521
1289.52659 0.02525
1287.47321 0.02529
1285.41982 0.02528
1283.36643 0.02539
1281.31305 0.02555
1279.25966 0.02554
1277.20628 0.02566
1275.15289 0.02622
1273.09950 0.02694
1271.04612 0.02731
1268.99273 0.02747
1266.93934 0.02772
1264.88596 0.02792
1262.83257 0.02801
1260.77918 0.02813
1258.72580 0.02824
1256.67241 0.02832
1254.61903 0.02835
1252.56564 0.02838
1250.51225 0.02840
1248.45887 0.02827
1246.40548 0.02813
1244.35209 0.02824
1242.29871 0.02847
1240.24532 0.02863
1238.19194 0.02877
1236.13855 0.02888
1234.08516 0.02901
1232.03178 0.02922
1229.97839 0.02943
1227.92500 0.02944
1225.87162 0.02914
1223.81823 0.02880
1221.76485 0.02865
1219.71146 0.02862
1217.65807 0.02863
1215.60469 0.02870
1213.55130 0.02880
1211.49791 0.02880
1209.44453 0.02861
1207.39114 0.02825
1205.33775 0.02785
1203.28437 0.02754
1201.23098 0.02750
1199.17760 0.02761
1197.12421 0.02754
1195.07082 0.02735
1193.01744 0.02721
1190.96405 0.02709
1188.91066 0.02709
1186.85728 0.02733
1184.80389 0.02767
1182.75051 0.02794
1180.69712 0.02833
1178.64373 0.02898
1176.59035 0.02969
1174.53696 0.03028
1172.48357 0.03089
1170.43019 0.03161
1168.37680 0.03201
1166.32342 0.03194
1164.27003 0.03156
1162.21664 0.03089
1160.16326 0.02992
1158.10987 0.02880
1156.05648 0.02770
1154.00310 0.02663
1151.94971 0.02558
1149.89632 0.02453
1147.84294 0.02360
1145.78955 0.02283
1143.73617 0.02208
1141.68278 0.02143
1139.62939 0.02117
1137.57601 0.02108
1135.52262 0.02077
1133.46923 0.02048
1131.41585 0.02046
1129.36246 0.02038
1127.30908 0.01999
1125.25569 0.01977
1123.20230 0.02016
1121.14892 0.02061
1119.09553 0.02062
1117.04214 0.02073
1114.98876 0.02111
1112.93537 0.02121
1110.88199 0.02104
1108.82860 0.02082
1106.77521 0.02065
1104.72183 0.02076
1102.66844 0.02102
1100.61505 0.02102
1098.56167 0.02086
1096.50828 0.02083
1094.45490 0.02068
1092.40151 0.02022
1090.34812 0.01980
1088.29474 0.01967
1086.24135 0.01966
1084.18796 0.01970
1082.13458 0.02006
1080.08119 0.02051
1078.02780 0.02053
1075.97442 0.02016
1073.92103 0.01992
1071.86765 0.01990
1069.81426 0.01972
1067.76087 0.01937
1065.70749 0.01912
1063.65410 0.01891
1061.60071 0.01852
1059.54733 0.01785
1057.49394 0.01723
1055.44056 0.01685
1053.38717 0.01654
1051.33378 0.01627
1049.28040 0.01603
1047.22701 0.01578
1045.17362 0.01560
1043.12024 0.01547
1041.06685 0.01536
1039.01347 0.01526
1036.96008 0.01498
1034.90669 0.01441
1032.85331 0.01358
1030.79992 0.01282
1028.74653 0.01221
1026.69315 0.01145
1024.63976 0.01071
1022.58637 0.01012
1020.53299 0.00949
1018.47960 0.00896
1016.42622 0.00857
1014.37283 0.00811
1012.31944 0.00760
1010.26606 0.00704
1008.21267 0.00638
1006.15928 0.00592
1004.10590 0.00583
1002.05251 0.00592
999.99913 0.00587
997.94574 0.00535
995.89235 0.00474
993.83897 0.00460
991.78558 0.00455
989.73219 0.00431
987.67881 0.00425
985.62542 0.00443
983.57204 0.00492
981.51865 0.00577
979.46526 0.00671
977.41188 0.00804
975.35849 0.01019
973.30510 0.01321
971.25172 0.01681
969.19833 0.02010
967.14494 0.02256
965.09156 0.02430
963.03817 0.02522
960.98479 0.02550
958.93140 0.02543
956.87801 0.02492
954.82463 0.02441
952.77124 0.02472
950.71785 0.02600
948.66447 0.02756
946.61108 0.02875
944.55770 0.02985
942.50431 0.03123
940.45092 0.03275
938.39754 0.03380
936.34415 0.03357
934.29076 0.03290
932.23738 0.03316
930.18399 0.03390
928.13061 0.03441
926.07722 0.03465
924.02383 0.03447
921.97045 0.03427
919.91706 0.03458
917.86367 0.03501
915.81029 0.03521
913.75690 0.03537
911.70351 0.03530
909.65013 0.03515
907.59674 0.03534
905.54336 0.03544
903.48997 0.03519
901.43658 0.03511
899.38320 0.03532
897.32981 0.03514
895.27642 0.03445
893.22304 0.03368
891.16965 0.03271
889.11627 0.03150
887.06288 0.03038
885.00949 0.02926
882.95611 0.02753
880.90272 0.02452
878.84933 0.02105
876.79595 0.01901
874.74256 0.01809
872.68918 0.01724
870.63579 0.01666
868.58240 0.01574
866.52902 0.01427
864.47563 0.01336
862.42224 0.01262
860.36886 0.01084
858.31547 0.00904
856.26208 0.00827
854.20870 0.00822
852.15531 0.00792
850.10193 0.00706
848.04854 0.00688
845.99515 0.00723
843.94177 0.00705
841.88838 0.00648
839.83499 0.00598
837.78161 0.00609
835.72822 0.00643
833.67484 0.00587
831.62145 0.00491
829.56806 0.00514
827.51468 0.00618
825.46129 0.00638
823.40790 0.00582
821.35452 0.00520
819.30113 0.00454
817.24775 0.00462
815.19436 0.00624
813.14097 0.00965
811.08759 0.01448
809.03420 0.01838
806.98081 0.01944
804.92743 0.01824
802.87404 0.01642
800.82065 0.01457
798.76727 0.01194
796.71388 0.00990
794.66050 0.00996
792.60711 0.01021
790.55372 0.00968
788.50034 0.00935
786.44695 0.00920
784.39356 0.00882
782.34018 0.00857
780.28679 0.00841
778.23341 0.00738
776.18002 0.00658
774.12663 0.00760
772.07325 0.00883
770.01986 0.00920
767.96647 0.01029
765.91309 0.01230
763.85970 0.01362
761.80632 0.01328
759.75293 0.01187
757.69954 0.01126
755.64616 0.01192
753.59277 0.01271
751.53938 0.01221
749.48600 0.01121
747.43261 0.01186
745.37922 0.01179
743.32584 0.00945
741.27245 0.00706
739.21907 0.00539
737.16568 0.00558
735.11229 0.00712
733.05891 0.00771
731.00552 0.00639
728.95213 0.00298
726.89875 0.00293
724.84536 0.00863
722.79198 0.01092
720.73859 0.00779
718.68520 0.00652
716.63182 0.00702
714.57843 0.00639
712.52504 0.00633
710.47166 0.00820
708.41827 0.01173
706.36489 0.01203
704.31150 0.00483
702.25811 0.00000
700.20473 0.00198
698.15134 0.00147
696.09795 0.00046
694.04457 0.00183
691.99118 0.00000
689.93779 0.00113
687.88441 0.01012
685.83102 0.01945
683.77764 0.02314
681.72425 0.01427
679.67086 0.00000
