3997.94312 0.00000
3995.88973 0.00000
3993.83634 0.00000
3991.78296 0.00050
3989.72957 0.00117
3987.67618 0.00197
3985.62280 0.00231
3983.56941 0.00187
3981.51603 0.00129
3979.46264 0.00159
3977.40925 0.00262
3975.35587 0.00301
3973.30248 0.00188
3971.24909 0.00085
3969.19571 0.00149
3967.14232 0.00232
3965.08893 0.00216
3963.03555 0.00210
3960.98216 0.00262
3958.92878 0.00256
3956.87539 0.00199
3954.82200 0.00192
3952.76862 0.00177
3950.71523 0.00126
3948.66184 0.00114
3946.60846 0.00120
3944.55507 0.00124
3942.50169 0.00145
3940.44830 0.00146
3938.39491 0.00127
3936.34153 0.00155
3934.28814 0.00223
3932.23475 0.00244
3930.18137 0.00203
3928.12798 0.00166
3926.07460 0.00172
3924.02121 0.00220
3921.96782 0.00262
3919.91444 0.00248
3917.86105 0.00204
3915.80766 0.00216
3913.75428 0.00252
3911.70089 0.00271
3909.64750 0.00268
3907.59412 0.00243
3905.54073 0.00271
3903.48735 0.00324
3901.43396 0.00266
3899.38057 0.00153
3897.32719 0.00048
3895.27380 0.00008
3893.22041 0.00047
3891.16703 0.00049
3889.11364 0.00033
3887.06026 0.00103
3885.00687 0.00170
3882.95348 0.00206
3880.90010 0.00289
3878.84671 0.00385
3876.79332 0.00393
3874.73994 0.00294
3872.68655 0.00204
3870.63317 0.00175
3868.57978 0.00114
3866.52639 0.00053
3864.47301 0.00009
3862.41962 0.00000
3860.36623 0.00076
3858.31285 0.00242
3856.25946 0.00422
3854.20607 0.00454
3852.15269 0.00361
3850.09930 0.00355
3848.04592 0.00301
3845.99253 0.00216
3843.93914 0.00213
3841.88576 0.00303
3839.83237 0.00363
3837.77898 0.00303
3835.72560 0.00178
3833.67221 0.00118
3831.61883 0.00139
3829.56544 0.00169
3827.51205 0.00132
3825.45867 0.00068
3823.40528 0.00122
3821.35189 0.00246
3819.29851 0.00247
3817.24512 0.00135
3815.19174 0.00015
3813.13835 0.00027
3811.08496 0.00117
3809.03158 0.00189
3806.97819 0.00237
3804.92480 0.00314
3802.87142 0.00308
3800.81803 0.00107
3798.76464 0.00000
3796.71126 0.00037
3794.65787 0.00098
3792.60449 0.00156
3790.55110 0.00218
3788.49771 0.00290
3786.44433 0.00335
3784.39094 0.00300
3782.33755 0.00252
3780.28417 0.00298
3778.23078 0.00358
3776.17740 0.00325
3774.12401 0.00282
3772.07062 0.00274
3770.01724 0.00255
3767.96385 0.00212
3765.91046 0.00218
3763.85708 0.00291
3761.80369 0.00336
3759.75031 0.00268
3757.69692 0.00171
3755.64353 0.00176
3753.59015 0.00179
3751.53676 0.00098
3749.48337 0.00076
3747.42999 0.00108
3745.37660 0.00075
3743.32321 0.00073
3741.26983 0.00118
3739.21644 0.00128
3737.16306 0.00081
3735.10967 0.00000
3733.05628 0.00058
3731.00290 0.00196
3728.94951 0.00243
3726.89612 0.00186
3724.84274 0.00098
3722.78935 0.00082
3720.73597 0.00142
3718.68258 0.00234
3716.62919 0.00324
3714.57581 0.00347
3712.52242 0.00240
3710.46903 0.00138
3708.41565 0.00171
3706.36226 0.00191
3704.30888 0.00186
3702.25549 0.00157
3700.20210 0.00113
3698.14872 0.00082
3696.09533 0.00060
3694.04194 0.00039
3691.98856 0.00000
3689.93517 0.00011
3687.88179 0.00126
3685.82840 0.00212
3683.77501 0.00241
3681.72163 0.00225
3679.66824 0.00193
3677.61485 0.00211
3675.56147 0.00208
3673.50808 0.00129
3671.45469 0.00125
3669.40131 0.00142
3667.34792 0.00144
3665.29454 0.00173
3663.24115 0.00203
3661.18776 0.00226
3659.13438 0.00203
3657.08099 0.00110
3655.02760 0.00103
3652.97422 0.00253
3650.92083 0.00369
3648.86745 0.00194
3646.81406 0.00023
3644.76067 0.00063
3642.70729 0.00138
3640.65390 0.00248
3638.60051 0.00380
3636.54713 0.00419
3634.49374 0.00323
3632.44036 0.00245
3630.38697 0.00299
3628.33358 0.00353
3626.28020 0.00275
3624.22681 0.00217
3622.17342 0.00231
3620.12004 0.00272
3618.06665 0.00297
3616.01326 0.00289
3613.95988 0.00244
3611.90649 0.00253
3609.85311 0.00341
3607.79972 0.00337
3605.74633 0.00234
3603.69295 0.00186
3601.63956 0.00167
3599.58617 0.00164
3597.53279 0.00220
3595.47940 0.00282
3593.42602 0.00302
3591.37263 0.00329
3589.31924 0.00386
3587.26586 0.00407
3585.21247 0.00333
3583.15908 0.00244
3581.10570 0.00240
3579.05231 0.00332
3576.99893 0.00412
3574.94554 0.00402
3572.89215 0.00369
3570.83877 0.00360
3568.78538 0.00313
3566.73199 0.00252
3564.67861 0.00277
3562.62522 0.00308
3560.57183 0.00274
3558.51845 0.00253
3556.46506 0.00308
3554.41168 0.00371
3552.35829 0.00344
3550.30490 0.00271
3548.25152 0.00330
3546.19813 0.00455
3544.14474 0.00467
3542.09136 0.00463
3540.03797 0.00508
3537.98459 0.00550
3535.93120 0.00557
3533.87781 0.00539
3531.82443 0.00538
3529.77104 0.00530
3527.71765 0.00507
3525.66427 0.00469
3523.61088 0.00392
3521.55750 0.00339
3519.50411 0.00360
3517.45072 0.00380
3515.39734 0.00321
3513.34395 0.00277
3511.29056 0.00328
3509.23718 0.00344
3507.18379 0.00256
3505.13040 0.00172
3503.07702 0.00162
3501.02363 0.00212
3498.97025 0.00268
3496.91686 0.00264
3494.86347 0.00273
3492.81009 0.00358
3490.75670 0.00477
3488.70331 0.00601
3486.64993 0.00618
3484.59654 0.00525
3482.54316 0.00491
3480.48977 0.00547
3478.43638 0.00551
3476.38300 0.00469
3474.32961 0.00446
3472.27622 0.00581
3470.22284 0.00719
3468.16945 0.00675
3466.11607 0.00519
3464.06268 0.00364
3462.00929 0.00258
3459.95591 0.00326
3457.90252 0.00471
3455.84913 0.00469
3453.79575 0.00423
3451.74236 0.00470
3449.68897 0.00504
3447.63559 0.00460
3445.58220 0.00403
3443.52882 0.00387
3441.47543 0.00388
3439.42204 0.00377
3437.36866 0.00397
3435.31527 0.00503
3433.26188 0.00586
3431.20850 0.00553
3429.15511 0.00495
3427.10173 0.00481
3425.04834 0.00560
3422.99495 0.00646
3420.94157 0.00564
3418.88818 0.00409
3416.83479 0.00321
3414.78141 0.00292
3412.72802 0.00362
3410.67464 0.00515
3408.62125 0.00631
3406.56786 0.00639
3404.51448 0.00558
3402.46109 0.00453
3400.40770 0.00407
3398.35432 0.00495
3396.30093 0.00554
3394.24754 0.00456
3392.19416 0.00465
3390.14077 0.00609
3388.08739 0.00604
3386.03400 0.00465
3383.98061 0.00373
3381.92723 0.00370
3379.87384 0.00403
3377.82045 0.00375
3375.76707 0.00319
3373.71368 0.00307
3371.66030 0.00316
3369.60691 0.00362
3367.55352 0.00408
3365.50014 0.00379
3363.44675 0.00335
3361.39336 0.00401
3359.33998 0.00505
3357.28659 0.00520
3355.23321 0.00479
3353.17982 0.00494
3351.12643 0.00598
3349.07305 0.00669
3347.01966 0.00624
3344.96627 0.00517
3342.91289 0.00450
3340.85950 0.00431
3338.80611 0.00419
3336.75273 0.00411
3334.69934 0.00365
3332.64596 0.00311
3330.59257 0.00329
3328.53918 0.00366
3326.48580 0.00375
3324.43241 0.00375
3322.37902 0.00387
3320.32564 0.00409
3318.27225 0.00422
3316.21887 0.00470
3314.16548 0.00509
3312.11209 0.00473
3310.05871 0.00424
3308.00532 0.00383
3305.95193 0.00382
3303.89855 0.00445
3301.84516 0.00483
3299.79178 0.00502
3297.73839 0.00572
3295.68500 0.00600
3293.63162 0.00553
3291.57823 0.00508
3289.52484 0.00490
3287.47146 0.00506
3285.41807 0.00509
3283.36469 0.00472
3281.31130 0.00469
3279.25791 0.00511
3277.20453 0.00513
3275.15114 0.00479
3273.09775 0.00456
3271.04437 0.00414
3268.99098 0.00376
3266.93759 0.00377
3264.88421 0.00397
3262.83082 0.00436
3260.77744 0.00459
3258.72405 0.00445
3256.67066 0.00424
3254.61728 0.00426
3252.56389 0.00463
3250.51050 0.00469
3248.45712 0.00447
3246.40373 0.00505
3244.35035 0.00616
3242.29696 0.00631
3240.24357 0.00530
3238.19019 0.00434
3236.13680 0.00420
3234.08341 0.00450
3232.03003 0.00450
3229.97664 0.00447
3227.92326 0.00455
3225.86987 0.00411
3223.81648 0.00332
3221.76310 0.00299
3219.70971 0.00332
3217.65632 0.00338
3215.60294 0.00290
3213.54955 0.00285
3211.49616 0.00354
3209.44278 0.00446
3207.38939 0.00465
3205.33601 0.00411
3203.28262 0.00388
3201.22923 0.00356
3199.17585 0.00292
3197.12246 0.00278
3195.06907 0.00291
3193.01569 0.00300
3190.96230 0.00320
3188.90892 0.00343
3186.85553 0.00349
3184.80214 0.00334
3182.74876 0.00315
3180.69537 0.00291
3178.64198 0.00236
3176.58860 0.00178
3174.53521 0.00202
3172.48183 0.00299
3170.42844 0.00315
3168.37505 0.00251
3166.32167 0.00232
3164.26828 0.00232
3162.21489 0.00216
3160.16151 0.00207
3158.10812 0.00192
3156.05473 0.00186
3154.00135 0.00222
3151.94796 0.00270
3149.89458 0.00272
3147.84119 0.00239
3145.78780 0.00178
3143.73442 0.00113
3141.68103 0.00122
3139.62764 0.00177
3137.57426 0.00187
3135.52087 0.00163
3133.46749 0.00155
3131.41410 0.00139
3129.36071 0.00128
3127.30733 0.00164
3125.25394 0.00174
3123.20055 0.00115
3121.14717 0.00092
3119.09378 0.00134
3117.04040 0.00171
3114.98701 0.00203
3112.93362 0.00220
3110.88024 0.00206
3108.82685 0.00199
3106.77346 0.00211
3104.72008 0.00232
3102.66669 0.00212
3100.61330 0.00122
3098.55992 0.00066
3096.50653 0.00092
3094.45315 0.00100
3092.39976 0.00076
3090.34637 0.00094
3088.29299 0.00118
3086.23960 0.00106
3084.18621 0.00100
3082.13283 0.00115
3080.07944 0.00151
3078.02606 0.00203
3075.97267 0.00228
3073.91928 0.00193
3071.86590 0.00134
3069.81251 0.00105
3067.75912 0.00111
3065.70574 0.00126
3063.65235 0.00131
3061.59897 0.00131
3059.54558 0.00112
3057.49219 0.00090
3055.43881 0.00077
3053.38542 0.00069
3051.33203 0.00081
3049.27865 0.00107
3047.22526 0.00131
3045.17187 0.00129
3043.11849 0.00112
3041.06510 0.00114
3039.01172 0.00111
3036.95833 0.00100
3034.90494 0.00086
3032.85156 0.00049
3030.79817 0.00028
3028.74478 0.00054
3026.69140 0.00067
3024.63801 0.00071
3022.58463 0.00115
3020.53124 0.00139
3018.47785 0.00129
3016.42447 0.00151
3014.37108 0.00179
3012.31769 0.00160
3010.26431 0.00117
3008.21092 0.00084
3006.15754 0.00094
3004.10415 0.00134
3002.05076 0.00124
2999.99738 0.00074
2997.94399 0.00081
2995.89060 0.00127
2993.83722 0.00123
2991.78383 0.00100
2989.73044 0.00120
2987.67706 0.00170
2985.62367 0.00225
2983.57029 0.00234
2981.51690 0.00213
2979.46351 0.00227
2977.41013 0.00217
2975.35674 0.00164
2973.30335 0.00155
2971.24997 0.00204
2969.19658 0.00248
2967.14320 0.00268
2965.08981 0.00292
2963.03642 0.00320
2960.98304 0.00327
2958.92965 0.00335
2956.87626 0.00388
2954.82288 0.00456
2952.76949 0.00516
2950.71611 0.00574
2948.66272 0.00644
2946.60933 0.00708
2944.55595 0.00713
2942.50256 0.00680
2940.44917 0.00679
2938.39579 0.00702
2936.34240 0.00690
2934.28901 0.00692
2932.23563 0.00732
2930.18224 0.00710
2928.12886 0.00652
2926.07547 0.00637
2924.02208 0.00639
2921.96870 0.00647
2919.91531 0.00659
2917.86192 0.00648
2915.80854 0.00620
2913.75515 0.00574
2911.70177 0.00514
2909.64838 0.00467
2907.59499 0.00422
2905.54161 0.00387
2903.48822 0.00390
2901.43483 0.00380
2899.38145 0.00315
2897.32806 0.00272
2895.27468 0.00294
2893.22129 0.00315
2891.16790 0.00295
2889.11452 0.00265
2887.06113 0.00273
2885.00774 0.00309
2882.95436 0.00321
2880.90097 0.00290
2878.84758 0.00261
2876.79420 0.00273
2874.74081 0.00291
2872.68743 0.00299
2870.63404 0.00315
2868.58065 0.00310
2866.52727 0.00291
2864.47388 0.00308
2862.42049 0.00323
2860.36711 0.00311
2858.31372 0.00297
2856.26034 0.00262
2854.20695 0.00217
2852.15356 0.00187
2850.10018 0.00178
2848.04679 0.00186
2845.99340 0.00181
2843.94002 0.00145
2841.88663 0.00110
2839.83325 0.00088
2837.77986 0.00078
2835.72647 0.00075
2833.67309 0.00039
2831.61970 0.00001
2829.56631 0.00015
2827.51293 0.00037
2825.45954 0.00018
2823.40616 0.00000
2821.35277 0.00036
2819.29938 0.00093
2817.24600 0.00120
2815.19261 0.00124
2813.13922 0.00130
2811.08584 0.00117
2809.03245 0.00073
2806.97906 0.00043
2804.92568 0.00060
2802.87229 0.00107
2800.81891 0.00141
2798.76552 0.00138
2796.71213 0.00124
2794.65875 0.00125
2792.60536 0.00127
2790.55197 0.00117
2788.49859 0.00114
2786.44520 0.00117
2784.39182 0.00106
2782.33843 0.00090
2780.28504 0.00082
2778.23166 0.00085
2776.17827 0.00085
2774.12488 0.00073
2772.07150 0.00073
2770.01811 0.00079
2767.96473 0.00069
2765.91134 0.00051
2763.85795 0.00048
2761.80457 0.00062
2759.75118 0.00080
2757.69779 0.00104
2755.64441 0.00123
2753.59102 0.00116
2751.53763 0.00092
2749.48425 0.00081
2747.43086 0.00087
2745.37748 0.00091
2743.32409 0.00080
2741.27070 0.00067
2739.21732 0.00059
2737.16393 0.00029
2735.11054 0.00000
2733.05716 0.00007
2731.00377 0.00027
2728.95039 0.00037
2726.89700 0.00032
2724.84361 0.00028
2722.79023 0.00046
2720.73684 0.00065
2718.68345 0.00068
2716.63007 0.00062
2714.57668 0.00058
2712.52330 0.00076
2710.46991 0.00107
2708.41652 0.00103
2706.36314 0.00046
2704.30975 0.00003
2702.25636 0.00011
2700.20298 0.00018
2698.14959 0.00012
2696.09620 0.00023
2694.04282 0.00044
2691.98943 0.00073
2689.93605 0.00118
2687.88266 0.00112
2685.82927 0.00043
2683.77589 0.00005
2681.72250 0.00034
2679.66911 0.00075
2677.61573 0.00081
2675.56234 0.00067
2673.50896 0.00080
2671.45557 0.00113
2669.40218 0.00125
2667.34880 0.00099
2665.29541 0.00067
2663.24202 0.00059
2661.18864 0.00058
2659.13525 0.00049
2657.08187 0.00043
2655.02848 0.00028
2652.97509 0.00005
2650.92171 0.00000
2648.86832 0.00006
2646.81493 0.00021
2644.76155 0.00045
2642.70816 0.00060
2640.65477 0.00072
2638.60139 0.00085
2636.54800 0.00078
2634.49462 0.00057
2632.44123 0.00040
2630.38784 0.00045
2628.33446 0.00059
2626.28107 0.00059
2624.22768 0.00064
2622.17430 0.00077
2620.12091 0.00073
2618.06753 0.00065
2616.01414 0.00074
2613.96075 0.00075
2611.90737 0.00061
2609.85398 0.00065
2607.80059 0.00075
2605.74721 0.00055
2603.69382 0.00021
2601.64044 0.00015
2599.58705 0.00037
2597.53366 0.00061
2595.48028 0.00063
2593.42689 0.00055
2591.37350 0.00049
2589.32012 0.00036
2587.26673 0.00019
2585.21334 0.00021
2583.15996 0.00039
2581.10657 0.00045
2579.05319 0.00038
2576.99980 0.00026
2574.94641 0.00017
2572.89303 0.00037
2570.83964 0.00069
2568.78625 0.00076
2566.73287 0.00085
2564.67948 0.00091
2562.62610 0.00065
2560.57271 0.00044
2558.51932 0.00062
2556.46594 0.00084
2554.41255 0.00073
2552.35916 0.00046
2550.30578 0.00029
2548.25239 0.00026
2546.19901 0.00030
2544.14562 0.00038
2542.09223 0.00056
2540.03885 0.00075
2537.98546 0.00075
2535.93207 0.00064
2533.87869 0.00060
2531.82530 0.00057
2529.77191 0.00050
2527.71853 0.00037
2525.66514 0.00033
2523.61176 0.00058
2521.55837 0.00082
2519.50498 0.00074
2517.45160 0.00062
2515.39821 0.00079
2513.34482 0.00101
2511.29144 0.00090
2509.23805 0.00065
2507.18467 0.00064
2505.13128 0.00069
2503.07789 0.00068
2501.02451 0.00081
2498.97112 0.00111
2496.91773 0.00135
2494.86435 0.00117
2492.81096 0.00076
2490.75758 0.00045
2488.70419 0.00021
2486.65080 0.00005
2484.59742 0.00000
2482.54403 0.00014
2480.49064 0.00022
2478.43726 0.00023
2476.38387 0.00038
2474.33048 0.00053
2472.27710 0.00065
2470.22371 0.00076
2468.17033 0.00097
2466.11694 0.00106
2464.06355 0.00078
2462.01017 0.00056
2459.95678 0.00070
2457.90339 0.00105
2455.85001 0.00127
2453.79662 0.00117
2451.74324 0.00077
2449.68985 0.00049
2447.63646 0.00069
2445.58308 0.00109
2443.52969 0.00129
2441.47630 0.00131
2439.42292 0.00131
2437.36953 0.00119
2435.31615 0.00090
2433.26276 0.00079
2431.20937 0.00092
2429.15599 0.00100
2427.10260 0.00108
2425.04921 0.00125
2422.99583 0.00142
2420.94244 0.00140
2418.88906 0.00124
2416.83567 0.00118
2414.78228 0.00110
2412.72890 0.00100
2410.67551 0.00099
2408.62212 0.00114
2406.56874 0.00146
2404.51535 0.00157
2402.46196 0.00137
2400.40858 0.00137
2398.35519 0.00163
2396.30181 0.00184
2394.24842 0.00191
2392.19503 0.00185
2390.14165 0.00179
2388.08826 0.00169
2386.03487 0.00140
2383.98149 0.00113
2381.92810 0.00109
2379.87472 0.00148
2377.82133 0.00197
2375.76794 0.00194
2373.71456 0.00160
2371.66117 0.00115
2369.60778 0.00072
2367.55440 0.00055
2365.50101 0.00052
2363.44763 0.00057
2361.39424 0.00082
2359.34085 0.00099
2357.28747 0.00056
2355.23408 0.00000
2353.18069 0.00018
2351.12731 0.00075
2349.07392 0.00098
2347.02053 0.00092
2344.96715 0.00094
2342.91376 0.00109
2340.86038 0.00094
2338.80699 0.00035
2336.75360 0.00018
2334.70022 0.00096
2332.64683 0.00196
2330.59344 0.00239
2328.54006 0.00190
2326.48667 0.00074
2324.43329 0.00000
2322.37990 0.00032
2320.32651 0.00101
2318.27313 0.00121
2316.21974 0.00128
2314.16635 0.00176
2312.11297 0.00205
2310.05958 0.00164
2308.00620 0.00144
2305.95281 0.00193
2303.89942 0.00218
2301.84604 0.00192
2299.79265 0.00162
2297.73926 0.00139
2295.68588 0.00120
2293.63249 0.00118
2291.57910 0.00136
2289.52572 0.00167
2287.47233 0.00183
2285.41895 0.00142
2283.36556 0.00087
2281.31217 0.00099
2279.25879 0.00152
2277.20540 0.00163
2275.15201 0.00139
2273.09863 0.00150
2271.04524 0.00177
2268.99186 0.00178
2266.93847 0.00186
2264.88508 0.00216
2262.83170 0.00236
2260.77831 0.00253
2258.72492 0.00315
2256.67154 0.00422
2254.61815 0.00562
2252.56477 0.00770
2250.51138 0.01039
2248.45799 0.01329
2246.40461 0.01603
2244.35122 0.01804
2242.29783 0.01869
2240.24445 0.01765
2238.19106 0.01538
2236.13767 0.01269
2234.08429 0.00972
2232.03090 0.00696
2229.97752 0.00539
2227.92413 0.00479
2225.87074 0.00434
2223.81736 0.00400
2221.76397 0.00370
2219.71058 0.00315
2217.65720 0.00263
2215.60381 0.00261
2213.55043 0.00296
2211.49704 0.00315
2209.44365 0.00312
2207.39027 0.00307
2205.33688 0.00307
2203.28349 0.00317
2201.23011 0.00312
2199.17672 0.00281
2197.12334 0.00273
2195.06995 0.00282
2193.01656 0.00272
2190.96318 0.00251
2188.90979 0.00232
2186.85640 0.00225
2184.80302 0.00223
2182.74963 0.00214
2180.69624 0.00204
2178.64286 0.00185
2176.58947 0.00151
2174.53609 0.00124
2172.48270 0.00110
2170.42931 0.00117
2168.37593 0.00136
2166.32254 0.00117
2164.26915 0.00086
2162.21577 0.00096
2160.16238 0.00124
2158.10900 0.00133
2156.05561 0.00108
2154.00222 0.00061
2151.94884 0.00056
2149.89545 0.00091
2147.84206 0.00078
2145.78868 0.00036
2143.73529 0.00029
2141.68191 0.00050
2139.62852 0.00080
2137.57513 0.00083
2135.52175 0.00042
2133.46836 0.00009
2131.41497 0.00025
2129.36159 0.00066
2127.30820 0.00099
2125.25481 0.00120
2123.20143 0.00126
2121.14804 0.00112
2119.09466 0.00084
2117.04127 0.00069
2114.98788 0.00064
2112.93450 0.00068
2110.88111 0.00083
2108.82772 0.00081
2106.77434 0.00073
2104.72095 0.00073
2102.66757 0.00070
2100.61418 0.00078
2098.56079 0.00090
2096.50741 0.00092
2094.45402 0.00080
2092.40063 0.00063
2090.34725 0.00068
2088.29386 0.00084
2086.24048 0.00088
2084.18709 0.00076
2082.13370 0.00057
2080.08032 0.00055
2078.02693 0.00075
2075.97354 0.00072
2073.92016 0.00032
2071.86677 0.00006
2069.81338 0.00003
2067.76000 0.00000
2065.70661 0.00010
2063.65323 0.00033
2061.59984 0.00033
2059.54645 0.00025
2057.49307 0.00053
2055.43968 0.00092
2053.38629 0.00088
2051.33291 0.00060
2049.27952 0.00044
2047.22614 0.00044
2045.17275 0.00053
2043.11936 0.00046
2041.06598 0.00025
2039.01259 0.00013
2036.95920 0.00010
2034.90582 0.00020
2032.85243 0.00039
2030.79905 0.00045
2028.74566 0.00045
2026.69227 0.00058
2024.63889 0.00066
2022.58550 0.00066
2020.53211 0.00086
2018.47873 0.00108
2016.42534 0.00094
2014.37195 0.00067
2012.31857 0.00069
2010.26518 0.00079
2008.21180 0.00060
2006.15841 0.00031
2004.10502 0.00038
2002.05164 0.00080
1999.99825 0.00084
1997.94486 0.00043
1995.89148 0.00018
1993.83809 0.00016
1991.78471 0.00029
1989.73132 0.00053
1987.67793 0.00057
1985.62455 0.00034
1983.57116 0.00025
1981.51777 0.00048
1979.46439 0.00069
1977.41100 0.00060
1975.35762 0.00040
1973.30423 0.00037
1971.25084 0.00054
1969.19746 0.00057
1967.14407 0.00043
1965.09068 0.00048
1963.03730 0.00061
1960.98391 0.00060
1958.93053 0.00059
1956.87714 0.00069
1954.82375 0.00083
1952.77037 0.00079
1950.71698 0.00049
1948.66359 0.00033
1946.61021 0.00052
1944.55682 0.00068
1942.50343 0.00058
1940.45005 0.00049
1938.39666 0.00051
1936.34328 0.00040
1934.28989 0.00019
1932.23650 0.00000
1930.18312 0.00001
1928.12973 0.00025
1926.07634 0.00054
1924.02296 0.00068
1921.96957 0.00072
1919.91619 0.00080
1917.86280 0.00062
1915.80941 0.00027
1913.75603 0.00026
1911.70264 0.00045
1909.64925 0.00059
1907.59587 0.00048
1905.54248 0.00023
1903.48910 0.00024
1901.43571 0.00040
1899.38232 0.00037
1897.32894 0.00025
1895.27555 0.00027
1893.22216 0.00038
1891.16878 0.00054
1889.11539 0.00071
1887.06200 0.00074
1885.00862 0.00071
1882.95523 0.00065
1880.90185 0.00064
1878.84846 0.00073
1876.79507 0.00074
1874.74169 0.00066
1872.68830 0.00058
1870.63491 0.00034
1868.58153 0.00000
1866.52814 0.00002
1864.47476 0.00032
1862.42137 0.00051
1860.36798 0.00064
1858.31460 0.00081
1856.26121 0.00079
1854.20782 0.00053
1852.15444 0.00037
1850.10105 0.00044
1848.04767 0.00056
1845.99428 0.00048
1843.94089 0.00007
1841.88751 0.00012
1839.83412 0.00051
1837.78073 0.00044
1835.72735 0.00017
1833.67396 0.00024
1831.62057 0.00041
1829.56719 0.00037
1827.51380 0.00023
1825.46042 0.00011
1823.40703 0.00000
1821.35364 0.00013
1819.30026 0.00043
1817.24687 0.00038
1815.19348 0.00006
1813.14010 0.00001
1811.08671 0.00007
1809.03333 0.00000
1806.97994 0.00000
1804.92655 0.00004
1802.87317 0.00011
1800.81978 0.00022
1798.76639 0.00030
1796.71301 0.00052
1794.65962 0.00071
1792.60624 0.00048
1790.55285 0.00003
1788.49946 0.00000
1786.44608 0.00024
1784.39269 0.00024
1782.33930 0.00002
1780.28592 0.00000
1778.23253 0.00038
1776.17914 0.00086
1774.12576 0.00111
1772.07237 0.00092
1770.01899 0.00072
1767.96560 0.00090
1765.91221 0.00115
1763.85883 0.00128
1761.80544 0.00141
1759.75205 0.00180
1757.69867 0.00217
1755.64528 0.00233
1753.59190 0.00263
1751.53851 0.00339
1749.48512 0.00466
1747.43174 0.00613
1745.37835 0.00783
1743.32496 0.00993
1741.27158 0.01219
1739.21819 0.01456
1737.16481 0.01677
1735.11142 0.01883
1733.05803 0.02056
1731.00465 0.02146
1728.95126 0.02206
1726.89787 0.02220
1724.84449 0.02172
1722.79110 0.02104
1720.73771 0.02064
1718.68433 0.01996
1716.63094 0.01820
1714.57756 0.01652
1712.52417 0.01560
1710.47078 0.01489
1708.41740 0.01421
1706.36401 0.01377
1704.31062 0.01382
1702.25724 0.01415
1700.20385 0.01402
1698.15047 0.01331
1696.09708 0.01281
1694.04369 0.01279
1691.99031 0.01303
1689.93692 0.01310
1687.88353 0.01309
1685.83015 0.01315
1683.77676 0.01330
1681.72338 0.01398
1679.66999 0.01495
1677.61660 0.01604
1675.56322 0.01696
1673.50983 0.01735
1671.45644 0.01749
1669.40306 0.01763
1667.34967 0.01803
1665.29628 0.01848
1663.24290 0.01866
1661.18951 0.01887
1659.13613 0.01934
1657.08274 0.01969
1655.02935 0.01985
1652.97597 0.01920
1650.92258 0.01843
1648.86919 0.01837
1646.81581 0.01789
1644.76242 0.01735
1642.70904 0.01765
1640.65565 0.01837
1638.60226 0.01918
1636.54888 0.01981
1634.49549 0.01993
1632.44210 0.02032
1630.38872 0.02113
1628.33533 0.02218
1626.28195 0.02347
1624.22856 0.02472
1622.17517 0.02586
1620.12179 0.02710
1618.06840 0.02858
1616.01501 0.03046
1613.96163 0.03231
1611.90824 0.03408
1609.85485 0.03588
1607.80147 0.03773
1605.74808 0.03962
1603.69470 0.04140
1601.64131 0.04303
1599.58792 0.04465
1597.53454 0.04606
1595.48115 0.04700
1593.42776 0.04763
1591.37438 0.04807
1589.32099 0.04832
1587.26761 0.04826
1585.21422 0.04765
1583.16083 0.04650
1581.10745 0.04525
1579.05406 0.04414
1577.00067 0.04212
1574.94729 0.03887
1572.89390 0.03696
1570.84052 0.03550
1568.78713 0.03354
1566.73374 0.03190
1564.68036 0.03053
1562.62697 0.02970
1560.57358 0.02929
1558.52020 0.02727
1556.46681 0.02518
1554.41342 0.02440
1552.36004 0.02382
1550.30665 0.02315
1548.25327 0.02245
1546.19988 0.02184
1544.14649 0.02097
1542.09311 0.01998
1540.03972 0.01922
1537.98633 0.01906
1535.93295 0.01918
1533.87956 0.01901
1531.82618 0.01870
1529.77279 0.01872
1527.71940 0.01871
1525.66602 0.01851
1523.61263 0.01833
1521.55924 0.01818
1519.50586 0.01813
1517.45247 0.01808
1515.39909 0.01804
1513.34570 0.01816
1511.29231 0.01846
1509.23893 0.01888
1507.18554 0.01848
1505.13215 0.01778
1503.07877 0.01817
1501.02538 0.01883
1498.97200 0.01918
1496.91861 0.01878
1494.86522 0.01865
1492.81184 0.01915
1490.75845 0.01934
1488.70506 0.01910
1486.65168 0.01936
1484.59829 0.01960
1482.54490 0.01943
1480.49152 0.01931
1478.43813 0.01947
1476.38475 0.01962
1474.33136 0.01935
1472.27797 0.01884
1470.22459 0.01918
1468.17120 0.02002
1466.11781 0.02093
1464.06443 0.02239
1462.01104 0.02448
1459.95766 0.02701
1457.90427 0.03092
1455.85088 0.03522
1453.79750 0.03729
1451.74411 0.03866
1449.69072 0.03958
1447.63734 0.03949
1445.58395 0.03870
1443.53057 0.03788
1441.47718 0.03700
1439.42379 0.03594
1437.37041 0.03447
1435.31702 0.03273
1433.26363 0.03148
1431.21025 0.03041
1429.15686 0.02927
1427.10347 0.02832
1425.05009 0.02758
1422.99670 0.02698
1420.94332 0.02651
1418.88993 0.02583
1416.83654 0.02527
1414.78316 0.02531
1412.72977 0.02543
1410.67638 0.02532
1408.62300 0.02511
1406.56961 0.02501
1404.51623 0.02527
1402.46284 0.02587
1400.40945 0.02660
1398.35607 0.02761
1396.30268 0.02879
1394.24929 0.03005
1392.19591 0.03161
1390.14252 0.03327
1388.08914 0.03506
1386.03575 0.03706
1383.98236 0.03900
1381.92898 0.04088
1379.87559 0.04260
1377.82220 0.04385
1375.76882 0.04477
1373.71543 0.04570
1371.66204 0.04645
1369.60866 0.04690
1367.55527 0.04717
1365.50189 0.04736
1363.44850 0.04726
1361.39511 0.04662
1359.34173 0.04586
1357.28834 0.04524
1355.23495 0.04469
1353.18157 0.04406
1351.12818 0.04325
1349.07480 0.04239
1347.02141 0.04158
1344.96802 0.04075
1342.91464 0.03999
1340.86125 0.03932
1338.80786 0.03849
1336.75448 0.03760
1334.70109 0.03682
1332.64771 0.03615
1330.59432 0.03544
1328.54093 0.03468
1326.48755 0.03403
1324.43416 0.03347
1322.38077 0.03282
1320.32739 0.03218
1318.27400 0.03163
1316.22061 0.03116
1314.16723 0.03077
1312.11384 0.03053
1310.06046 0.03035
1308.00707 0.02999
1305.95368 0.02963
1303.90030 0.02949
1301.84691 0.02937
1299.79352 0.02921
1297.74014 0.02916
1295.68675 0.02915
1293.63337 0.02908
1291.57998 0.02907
1289.52659 0.02917
1287.47321 0.02937
1285.41982 0.02965
1283.36643 0.02976
1281.31305 0.02967
1279.25966 0.02964
1277.20628 0.02985
1275.15289 0.03029
1273.09950 0.03080
1271.04612 0.03114
1268.99273 0.03125
1266.93934 0.03145
1264.88596 0.03178
1262.83257 0.03203
1260.77918 0.03226
1258.72580 0.03248
1256.67241 0.03249
1254.61903 0.03233
1252.56564 0.03218
1250.51225 0.03225
1248.45887 0.03253
1246.40548 0.03267
1244.35209 0.03256
1242.29871 0.03252
1240.24532 0.03269
1238.19194 0.03295
1236.13855 0.03309
1234.08516 0.03321
1232.03178 0.03342
1229.97839 0.03357
1227.92500 0.03357
1225.87162 0.03340
1223.81823 0.03321
1221.76485 0.03319
1219.71146 0.03320
1217.65807 0.03305
1215.60469 0.03285
1213.55130 0.03282
1211.49791 0.03284
1209.44453 0.03269
1207.39114 0.03244
1205.33775 0.03220
1203.28437 0.03203
1201.23098 0.03203
1199.17760 0.03194
1197.12421 0.03164
1195.07082 0.03153
1193.01744 0.03168
1190.96405 0.03169
1188.91066 0.03153
1186.85728 0.03155
1184.80389 0.03183
1182.75051 0.03215
1180.69712 0.03253
1178.64373 0.03315
1176.59035 0.03402
1174.53696 0.03499
1172.48357 0.03593
1170.43019 0.03669
1168.37680 0.03703
1166.32342 0.03685
1164.27003 0.03615
1162.21664 0.03527
1160.16326 0.03446
1158.10987 0.03346
1156.05648 0.03223
1154.00310 0.03105
1151.94971 0.02997
1149.89632 0.02879
1147.84294 0.02756
1145.78955 0.02646
1143.73617 0.02555
1141.68278 0.02491
1139.62939 0.02462
1137.57601 0.02447
1135.52262 0.02432
1133.46923 0.02418
1131.41585 0.02404
1129.36246 0.02386
1127.30908 0.02363
1125.25569 0.02352
1123.20230 0.02366
1121.14892 0.02378
1119.09553 0.02384
1117.04214 0.02409
1114.98876 0.02434
1112.93537 0.02430
1110.88199 0.02417
1108.82860 0.02413
1106.77521 0.02399
1104.72183 0.02393
1102.66844 0.02413
1100.61505 0.02422
1098.56167 0.02405
1096.50828 0.02393
1094.45490 0.02390
1092.40151 0.02342
1090.34812 0.02268
1088.29474 0.02253
1086.24135 0.02279
1084.18796 0.02281
1082.13458 0.02269
1080.08119 0.02275
1078.02780 0.02308
1075.97442 0.02329
1073.92103 0.02306
1071.86765 0.02264
1069.81426 0.02222
1067.76087 0.02199
1065.70749 0.02194
1063.65410 0.02167
1061.60071 0.02114
1059.54733 0.02062
1057.49394 0.02016
1055.44056 0.01958
1053.38717 0.01888
1051.33378 0.01818
1049.28040 0.01773
1047.22701 0.01769
1045.17362 0.01777
1043.12024 0.01769
1041.06685 0.01763
1039.01347 0.01741
1036.96008 0.01679
1034.90669 0.01593
1032.85331 0.01508
1030.79992 0.01436
1028.74653 0.01381
1026.69315 0.01339
1024.63976 0.01281
1022.58637 0.01194
1020.53299 0.01112
1018.47960 0.01046
1016.42622 0.00977
1014.37283 0.00897
1012.31944 0.00838
1010.26606 0.00818
1008.21267 0.00790
1006.15928 0.00749
1004.10590 0.00717
1002.05251 0.00690
999.99913 0.00659
997.94574 0.00628
995.89235 0.00599
993.83897 0.00567
991.78558 0.00546
989.73219 0.00532
987.67881 0.00520
985.62542 0.00539
983.57204 0.00609
981.51865 0.00699
979.46526 0.00794
977.41188 0.00915
975.35849 0.01079
973.30510 0.01348
971.25172 0.01707
969.19833 0.02032
967.14494 0.02297
965.09156 0.02530
963.03817 0.02682
960.98479 0.02713
958.93140 0.02664
956.87801 0.02589
954.82463 0.02541
952.77124 0.02574
950.71785 0.02687
948.66447 0.02839
946.61108 0.02991
944.55770 0.03125
942.50431 0.03244
940.45092 0.03391
938.39754 0.03524
936.34415 0.03555
934.29076 0.03562
932.23738 0.03599
930.18399 0.03606
928.13061 0.03609
926.07722 0.03618
924.02383 0.03615
921.97045 0.03635
919.91706 0.03670
917.86367 0.03708
915.81029 0.03763
913.75690 0.03788
911.70351 0.03772
909.65013 0.03786
907.59674 0.03840
905.54336 0.03853
903.48997 0.03798
901.43658 0.03770
899.38320 0.03827
897.32981 0.03871
895.27642 0.03801
893.22304 0.03673
891.16965 0.03571
889.11627 0.03508
887.06288 0.03425
885.00949 0.03231
882.95611 0.02967
880.90272 0.02695
878.84933 0.02390
876.79595 0.02138
874.74256 0.01999
872.68918 0.01898
870.63579 0.01801
868.58240 0.01704
866.52902 0.01600
864.47563 0.01423
862.42224 0.01162
860.36886 0.00955
858.31547 0.00896
856.26208 0.00925
854.20870 0.00912
852.15531 0.00844
850.10193 0.00805
848.04854 0.00826
845.99515 0.00817
843.94177 0.00747
841.88838 0.00686
839.83499 0.00642
837.78161 0.00633
835.72822 0.00704
833.67484 0.00762
831.62145 0.00723
829.56806 0.00676
827.51468 0.00690
825.46129 0.00748
823.40790 0.00743
821.35452 0.00613
819.30113 0.00525
817.24775 0.00646
815.19436 0.00899
813.14097 0.01136
811.08759 0.01387
809.03420 0.01662
806.98081 0.01839
804.92743 0.01800
802.87404 0.01692
800.82065 0.01759
798.76727 0.01752
796.71388 0.01447
794.66050 0.01166
792.60711 0.01162
790.55372 0.01309
788.50034 0.01328
786.44695 0.01220
784.39356 0.01262
782.34018 0.01397
780.28679 0.01376
778.23341 0.01264
776.18002 0.01240
774.12663 0.01247
772.07325 0.01167
770.01986 0.01033
767.96647 0.00953
765.91309 0.01058
763.85970 0.01155
761.80632 0.01024
759.75293 0.00872
757.69954 0.00890
755.64616 0.01043
753.59277 0.01184
751.53938 0.01137
749.48600 0.00896
747.43261 0.00666
745.37922 0.00544
743.32584 0.00618
741.27245 0.00783
739.21907 0.00769
737.16568 0.00784
735.11229 0.00806
733.05891 0.00836
731.00552 0.01083
728.95213 0.01159
726.89875 0.01015
724.84536 0.00937
722.79198 0.00823
720.73859 0.00665
718.68520 0.00653
716.63182 0.00614
714.57843 0.00394
712.52504 0.00319
710.47166 0.00404
708.41827 0.00529
706.36489 0.00443
704.31150 0.00023
702.25811 0.00000
700.20473 0.00472
698.15134 0.00486
696.09795 0.00026
694.04457 0.00283
691.99118 0.01499
689.93779 0.02340
687.88441 0.01724
685.83102 0.00754
683.77764 0.00530
681.72425 0.00305
679.67086 0.00000
