3997.94312 0.00000
3995.88973 0.00000
3993.83634 0.00000
3991.78296 0.00029
3989.72957 0.00091
3987.67618 0.00138
3985.62280 0.00159
3983.56941 0.00172
3981.51603 0.00197
3979.46264 0.00220
3977.40925 0.00208
3975.35587 0.00155
3973.30248 0.00088
3971.24909 0.00111
3969.19571 0.00195
3967.14232 0.00178
3965.08893 0.00111
3963.03555 0.00122
3960.98216 0.00204
3958.92878 0.00253
3956.87539 0.00205
3954.82200 0.00152
3952.76862 0.00118
3950.71523 0.00110
3948.66184 0.00182
3946.60846 0.00228
3944.55507 0.00204
3942.50169 0.00186
3940.44830 0.00219
3938.39491 0.00269
3936.34153 0.00274
3934.28814 0.00223
3932.23475 0.00119
3930.18137 0.00016
3928.12798 0.00041
3926.07460 0.00167
3924.02121 0.00254
3921.96782 0.00265
3919.91444 0.00232
3917.86105 0.00180
3915.80766 0.00177
3913.75428 0.00238
3911.70089 0.00290
3909.64750 0.00271
3907.59412 0.00223
3905.54073 0.00244
3903.48735 0.00296
3901.43396 0.00227
3899.38057 0.00139
3897.32719 0.00119
3895.27380 0.00136
3893.22041 0.00178
3891.16703 0.00211
3889.11364 0.00257
3887.06026 0.00309
3885.00687 0.00253
3882.95348 0.00106
3880.90010 0.00000
3878.84671 0.00071
3876.79332 0.00212
3874.73994 0.00240
3872.68655 0.00207
3870.63317 0.00194
3868.57978 0.00198
3866.52639 0.00200
3864.47301 0.00148
3862.41962 0.00115
3860.36623 0.00150
3858.31285 0.00231
3856.25946 0.00366
3854.20607 0.00398
3852.15269 0.00286
3850.09930 0.00309
3848.04592 0.00306
3845.99253 0.00283
3843.93914 0.00319
3841.88576 0.00350
3839.83237 0.00333
3837.77898 0.00314
3835.72560 0.00274
3833.67221 0.00186
3831.61883 0.00100
3829.56544 0.00100
3827.51205 0.00129
3825.45867 0.00128
3823.40528 0.00171
3821.35189 0.00212
3819.29851 0.00182
3817.24512 0.00138
3815.19174 0.00055
3813.13835 0.00027
3811.08496 0.00110
3809.03158 0.00232
3806.97819 0.00315
3804.92480 0.00382
3802.87142 0.00411
3800.81803 0.00286
3798.76464 0.00146
3796.71126 0.00135
3794.65787 0.00219
3792.60449 0.00272
3790.55110 0.00264
3788.49771 0.00291
3786.44433 0.00344
3784.39094 0.00333
3782.33755 0.00261
3780.28417 0.00234
3778.23078 0.00326
3776.17740 0.00440
3774.12401 0.00474
3772.07062 0.00431
3770.01724 0.00373
3767.96385 0.00353
3765.91046 0.00350
3763.85708 0.00370
3761.80369 0.00413
3759.75031 0.00431
3757.69692 0.00399
3755.64353 0.00339
3753.59015 0.00237
3751.53676 0.00084
3749.48337 0.00000
3747.42999 0.00031
3745.37660 0.00029
3743.32321 0.00000
3741.26983 0.00055
3739.21644 0.00153
3737.16306 0.00168
3735.10967 0.00044
3733.05628 0.00065
3731.00290 0.00194
3728.94951 0.00240
3726.89612 0.00219
3724.84274 0.00204
3722.78935 0.00250
3720.73597 0.00291
3718.68258 0.00313
3716.62919 0.00381
3714.57581 0.00439
3712.52242 0.00372
3710.46903 0.00285
3708.41565 0.00352
3706.36226 0.00391
3704.30888 0.00339
3702.25549 0.00270
3700.20210 0.00261
3698.14872 0.00272
3696.09533 0.00298
3694.04194 0.00329
3691.98856 0.00283
3689.93517 0.00250
3687.88179 0.00286
3685.82840 0.00263
3683.77501 0.00267
3681.72163 0.00284
3679.66824 0.00263
3677.61485 0.00256
3675.56147 0.00201
3673.50808 0.00073
3671.45469 0.00000
3669.40131 0.00000
3667.34792 0.00118
3665.29454 0.00248
3663.24115 0.00318
3661.18776 0.00323
3659.13438 0.00291
3657.08099 0.00288
3655.02760 0.00371
3652.97422 0.00460
3650.92083 0.00432
3648.86745 0.00229
3646.81406 0.00137
3644.76067 0.00201
3642.70729 0.00261
3640.65390 0.00288
3638.60051 0.00339
3636.54713 0.00435
3634.49374 0.00487
3632.44036 0.00482
3630.38697 0.00471
3628.33358 0.00339
3626.28020 0.00225
3624.22681 0.00277
3622.17342 0.00380
3620.12004 0.00434
3618.06665 0.00407
3616.01326 0.00329
3613.95988 0.00218
3611.90649 0.00205
3609.85311 0.00298
3607.79972 0.00334
3605.74633 0.00325
3603.69295 0.00366
3601.63956 0.00424
3599.58617 0.00408
3597.53279 0.00310
3595.47940 0.00216
3593.42602 0.00195
3591.37263 0.00237
3589.31924 0.00307
3587.26586 0.00383
3585.21247 0.00438
3583.15908 0.00458
3581.10570 0.00431
3579.05231 0.00416
3576.99893 0.00456
3574.94554 0.00441
3572.89215 0.00397
3570.83877 0.00410
3568.78538 0.00419
3566.73199 0.00433
3564.67861 0.00506
3562.62522 0.00524
3560.57183 0.00453
3558.51845 0.00392
3556.46506 0.00376
3554.41168 0.00349
3552.35829 0.00300
3550.30490 0.00275
3548.25152 0.00314
3546.19813 0.00360
3544.14474 0.00333
3542.09136 0.00317
3540.03797 0.00343
3537.98459 0.00405
3535.93120 0.00528
3533.87781 0.00622
3531.82443 0.00624
3529.77104 0.00534
3527.71765 0.00428
3525.66427 0.00413
3523.61088 0.00425
3521.55750 0.00399
3519.50411 0.00391
3517.45072 0.00431
3515.39734 0.00462
3513.34395 0.00482
3511.29056 0.00495
3509.23718 0.00429
3507.18379 0.00330
3505.13040 0.00279
3503.07702 0.00299
3501.02363 0.00415
3498.97025 0.00477
3496.91686 0.00400
3494.86347 0.00381
3492.81009 0.00471
3490.75670 0.00540
3488.70331 0.00572
3486.64993 0.00530
3484.59654 0.00413
3482.54316 0.00399
3480.48977 0.00534
3478.43638 0.00620
3476.38300 0.00593
3474.32961 0.00587
3472.27622 0.00682
3470.22284 0.00759
3468.16945 0.00716
3466.11607 0.00635
3464.06268 0.00543
3462.00929 0.00462
3459.95591 0.00515
3457.90252 0.00584
3455.84913 0.00469
3453.79575 0.00332
3451.74236 0.00350
3449.68897 0.00411
3447.63559 0.00408
3445.58220 0.00363
3443.52882 0.00375
3441.47543 0.00456
3439.42204 0.00513
3437.36866 0.00552
3435.31527 0.00584
3433.26188 0.00529
3431.20850 0.00433
3429.15511 0.00372
3427.10173 0.00355
3425.04834 0.00472
3422.99495 0.00647
3420.94157 0.00725
3418.88818 0.00713
3416.83479 0.00625
3414.78141 0.00517
3412.72802 0.00502
3410.67464 0.00581
3408.62125 0.00668
3406.56786 0.00687
3404.51448 0.00636
3402.46109 0.00593
3400.40770 0.00599
3398.35432 0.00632
3396.30093 0.00581
3394.24754 0.00446
3392.19416 0.00470
3390.14077 0.00597
3388.08739 0.00574
3386.03400 0.00471
3383.98061 0.00433
3381.92723 0.00476
3379.87384 0.00561
3377.82045 0.00592
3375.76707 0.00513
3373.71368 0.00413
3371.66030 0.00416
3369.60691 0.00516
3367.55352 0.00602
3365.50014 0.00558
3363.44675 0.00445
3361.39336 0.00443
3359.33998 0.00546
3357.28659 0.00612
3355.23321 0.00576
3353.17982 0.00562
3351.12643 0.00607
3349.07305 0.00607
3347.01966 0.00566
3344.96627 0.00480
3342.91289 0.00399
3340.85950 0.00447
3338.80611 0.00567
3336.75273 0.00606
3334.69934 0.00612
3332.64596 0.00637
3330.59257 0.00622
3328.53918 0.00610
3326.48580 0.00609
3324.43241 0.00555
3322.37902 0.00482
3320.32564 0.00458
3318.27225 0.00486
3316.21887 0.00531
3314.16548 0.00537
3312.11209 0.00509
3310.05871 0.00503
3308.00532 0.00496
3305.95193 0.00517
3303.89855 0.00560
3301.84516 0.00539
3299.79178 0.00485
3297.73839 0.00455
3295.68500 0.00421
3293.63162 0.00375
3291.57823 0.00358
3289.52484 0.00360
3287.47146 0.00352
3285.41807 0.00328
3283.36469 0.00321
3281.31130 0.00375
3279.25791 0.00453
3277.20453 0.00496
3275.15114 0.00510
3273.09775 0.00509
3271.04437 0.00493
3268.99098 0.00482
3266.93759 0.00447
3264.88421 0.00379
3262.83082 0.00381
3260.77744 0.00466
3258.72405 0.00516
3256.67066 0.00470
3254.61728 0.00412
3252.56389 0.00432
3250.51050 0.00439
3248.45712 0.00359
3246.40373 0.00306
3244.35035 0.00357
3242.29696 0.00435
3240.24357 0.00477
3238.19019 0.00468
3236.13680 0.00396
3234.08341 0.00361
3232.03003 0.00420
3229.97664 0.00484
3227.92326 0.00481
3225.86987 0.00416
3223.81648 0.00339
3221.76310 0.00304
3219.70971 0.00313
3217.65632 0.00313
3215.60294 0.00332
3213.54955 0.00381
3211.49616 0.00401
3209.44278 0.00400
3207.38939 0.00377
3205.33601 0.00332
3203.28262 0.00298
3201.22923 0.00266
3199.17585 0.00250
3197.12246 0.00274
3195.06907 0.00287
3193.01569 0.00293
3190.96230 0.00334
3188.90892 0.00371
3186.85553 0.00383
3184.80214 0.00379
3182.74876 0.00351
3180.69537 0.00331
3178.64198 0.00328
3176.58860 0.00319
3174.53521 0.00332
3172.48183 0.00355
3170.42844 0.00350
3168.37505 0.00321
3166.32167 0.00323
3164.26828 0.00344
3162.21489 0.00299
3160.16151 0.00212
3158.10812 0.00178
3156.05473 0.00207
3154.00135 0.00249
3151.94796 0.00283
3149.89458 0.00277
3147.84119 0.00239
3145.78780 0.00229
3143.73442 0.00210
3141.68103 0.00168
3139.62764 0.00191
3137.57426 0.00249
3135.52087 0.00224
3133.46749 0.00148
3131.41410 0.00133
3129.36071 0.00175
3127.30733 0.00217
3125.25394 0.00206
3123.20055 0.00153
3121.14717 0.00144
3119.09378 0.00183
3117.04040 0.00209
3114.98701 0.00226
3112.93362 0.00237
3110.88024 0.00252
3108.82685 0.00274
3106.77346 0.00247
3104.72008 0.00197
3102.66669 0.00178
3100.61330 0.00162
3098.55992 0.00146
3096.50653 0.00135
3094.45315 0.00118
3092.39976 0.00112
3090.34637 0.00117
3088.29299 0.00116
3086.23960 0.00118
3084.18621 0.00115
3082.13283 0.00113
3080.07944 0.00140
3078.02606 0.00162
3075.97267 0.00138
3073.91928 0.00113
3071.86590 0.00128
3069.81251 0.00145
3067.75912 0.00139
3065.70574 0.00118
3063.65235 0.00091
3061.59897 0.00098
3059.54558 0.00146
3057.49219 0.00171
3055.43881 0.00119
3053.38542 0.00072
3051.33203 0.00101
3049.27865 0.00144
3047.22526 0.00172
3045.17187 0.00195
3043.11849 0.00203
3041.06510 0.00203
3039.01172 0.00173
3036.95833 0.00114
3034.90494 0.00082
3032.85156 0.00075
3030.79817 0.00074
3028.74478 0.00105
3026.69140 0.00119
3024.63801 0.00085
3022.58463 0.00078
3020.53124 0.00086
3018.47785 0.00090
3016.42447 0.00131
3014.37108 0.00146
3012.31769 0.00104
3010.26431 0.00097
3008.21092 0.00116
3006.15754 0.00128
3004.10415 0.00162
3002.05076 0.00156
2999.99738 0.00100
2997.94399 0.00110
2995.89060 0.00165
2993.83722 0.00160
2991.78383 0.00130
2989.73044 0.00156
2987.67706 0.00199
2985.62367 0.00197
2983.57029 0.00173
2981.51690 0.00180
2979.46351 0.00202
2977.41013 0.00199
2975.35674 0.00188
2973.30335 0.00196
2971.24997 0.00236
2969.19658 0.00272
2967.14320 0.00230
2965.08981 0.00171
2963.03642 0.00216
2960.98304 0.00300
2958.92965 0.00354
2956.87626 0.00408
2954.82288 0.00422
2952.76949 0.00405
2950.71611 0.00416
2948.66272 0.00443
2946.60933 0.00479
2944.55595 0.00494
2942.50256 0.00472
2940.44917 0.00478
2938.39579 0.00522
2936.34240 0.00537
2934.28901 0.00558
2932.23563 0.00614
2930.18224 0.00607
2928.12886 0.00550
2926.07547 0.00511
2924.02208 0.00482
2921.96870 0.00463
2919.91531 0.00454
2917.86192 0.00430
2915.80854 0.00396
2913.75515 0.00349
2911.70177 0.00302
2909.64838 0.00270
2907.59499 0.00239
2905.54161 0.00253
2903.48822 0.00315
2901.43483 0.00335
2899.38145 0.00280
2897.32806 0.00225
2895.27468 0.00202
2893.22129 0.00165
2891.16790 0.00127
2889.11452 0.00132
2887.06113 0.00161
2885.00774 0.00175
2882.95436 0.00181
2880.90097 0.00165
2878.84758 0.00143
2876.79420 0.00168
2874.74081 0.00194
2872.68743 0.00197
2870.63404 0.00210
2868.58065 0.00217
2866.52727 0.00221
2864.47388 0.00233
2862.42049 0.00231
2860.36711 0.00248
2858.31372 0.00275
2856.26034 0.00248
2854.20695 0.00196
2852.15356 0.00169
2850.10018 0.00191
2848.04679 0.00221
2845.99340 0.00193
2843.94002 0.00149
2841.88663 0.00126
2839.83325 0.00101
2837.77986 0.00083
2835.72647 0.00088
2833.67309 0.00090
2831.61970 0.00079
2829.56631 0.00086
2827.51293 0.00087
2825.45954 0.00053
2823.40616 0.00028
2821.35277 0.00041
2819.29938 0.00078
2817.24600 0.00092
2815.19261 0.00074
2813.13922 0.00076
2811.08584 0.00089
2809.03245 0.00060
2806.97906 0.00023
2804.92568 0.00053
2802.87229 0.00106
2800.81891 0.00105
2798.76552 0.00081
2796.71213 0.00080
2794.65875 0.00071
2792.60536 0.00043
2790.55197 0.00046
2788.49859 0.00060
2786.44520 0.00047
2784.39182 0.00031
2782.33843 0.00024
2780.28504 0.00010
2778.23166 0.00020
2776.17827 0.00054
2774.12488 0.00070
2772.07150 0.00077
2770.01811 0.00069
2767.96473 0.00040
2765.91134 0.00009
2763.85795 0.00000
2761.80457 0.00010
2759.75118 0.00012
2757.69779 0.00039
2755.64441 0.00090
2753.59102 0.00106
2751.53763 0.00093
2749.48425 0.00070
2747.43086 0.00054
2745.37748 0.00064
2743.32409 0.00084
2741.27070 0.00107
2739.21732 0.00104
2737.16393 0.00060
2735.11054 0.00027
2733.05716 0.00030
2731.00377 0.00038
2728.95039 0.00040
2726.89700 0.00052
2724.84361 0.00059
2722.79023 0.00056
2720.73684 0.00080
2718.68345 0.00113
2716.63007 0.00097
2714.57668 0.00049
2712.52330 0.00028
2710.46991 0.00046
2708.41652 0.00061
2706.36314 0.00047
2704.30975 0.00046
2702.25636 0.00061
2700.20298 0.00050
2698.14959 0.00050
2696.09620 0.00084
2694.04282 0.00108
2691.98943 0.00127
2689.93605 0.00138
2687.88266 0.00083
2685.82927 0.00006
2683.77589 0.00009
2681.72250 0.00070
2679.66911 0.00118
2677.61573 0.00140
2675.56234 0.00143
2673.50896 0.00133
2671.45557 0.00111
2669.40218 0.00096
2667.34880 0.00093
2665.29541 0.00090
2663.24202 0.00083
2661.18864 0.00085
2659.13525 0.00093
2657.08187 0.00088
2655.02848 0.00069
2652.97509 0.00051
2650.92171 0.00059
2648.86832 0.00089
2646.81493 0.00109
2644.76155 0.00121
2642.70816 0.00133
2640.65477 0.00140
2638.60139 0.00139
2636.54800 0.00144
2634.49462 0.00160
2632.44123 0.00179
2630.38784 0.00177
2628.33446 0.00149
2626.28107 0.00142
2624.22768 0.00164
2622.17430 0.00177
2620.12091 0.00158
2618.06753 0.00130
2616.01414 0.00132
2613.96075 0.00147
2611.90737 0.00155
2609.85398 0.00188
2607.80059 0.00221
2605.74721 0.00216
2603.69382 0.00192
2601.64044 0.00176
2599.58705 0.00178
2597.53366 0.00176
2595.48028 0.00146
2593.42689 0.00134
2591.37350 0.00156
2589.32012 0.00164
2587.26673 0.00159
2585.21334 0.00169
2583.15996 0.00196
2581.10657 0.00220
2579.05319 0.00225
2576.99980 0.00221
2574.94641 0.00213
2572.89303 0.00216
2570.83964 0.00227
2568.78625 0.00221
2566.73287 0.00234
2564.67948 0.00265
2562.62610 0.00260
2560.57271 0.00242
2558.51932 0.00236
2556.46594 0.00232
2554.41255 0.00231
2552.35916 0.00226
2550.30578 0.00214
2548.25239 0.00227
2546.19901 0.00249
2544.14562 0.00256
2542.09223 0.00272
2540.03885 0.00293
2537.98546 0.00284
2535.93207 0.00262
2533.87869 0.00271
2531.82530 0.00294
2529.77191 0.00285
2527.71853 0.00253
2525.66514 0.00230
2523.61176 0.00237
2521.55837 0.00260
2519.50498 0.00273
2517.45160 0.00281
2515.39821 0.00296
2513.34482 0.00308
2511.29144 0.00311
2509.23805 0.00307
2507.18467 0.00306
2505.13128 0.00308
2503.07789 0.00311
2501.02451 0.00315
2498.97112 0.00310
2496.91773 0.00317
2494.86435 0.00341
2492.81096 0.00341
2490.75758 0.00311
2488.70419 0.00288
2486.65080 0.00272
2484.59742 0.00258
2482.54403 0.00281
2480.49064 0.00337
2478.43726 0.00370
2476.38387 0.00365
2474.33048 0.00357
2472.27710 0.00371
2470.22371 0.00385
2468.17033 0.00384
2466.11694 0.00387
2464.06355 0.00384
2462.01017 0.00371
2459.95678 0.00374
2457.90339 0.00415
2455.85001 0.00439
2453.79662 0.00410
2451.74324 0.00373
2449.68985 0.00364
2447.63646 0.00378
2445.58308 0.00394
2443.52969 0.00407
2441.47630 0.00417
2439.42292 0.00412
2437.36953 0.00386
2435.31615 0.00369
2433.26276 0.00398
2431.20937 0.00435
2429.15599 0.00455
2427.10260 0.00483
2425.04921 0.00498
2422.99583 0.00477
2420.94244 0.00444
2418.88906 0.00431
2416.83567 0.00437
2414.78228 0.00450
2412.72890 0.00478
2410.67551 0.00497
2408.62212 0.00501
2406.56874 0.00507
2404.51535 0.00490
2402.46196 0.00447
2400.40858 0.00424
2398.35519 0.00446
2396.30181 0.00484
2394.24842 0.00497
2392.19503 0.00503
2390.14165 0.00533
2388.08826 0.00549
2386.03487 0.00528
2383.98149 0.00501
2381.92810 0.00471
2379.87472 0.00437
2377.82133 0.00417
2375.76794 0.00417
2373.71456 0.00394
2371.66117 0.00305
2369.60778 0.00219
2367.55440 0.00161
2365.50101 0.00077
2363.44763 0.00000
2361.39424 0.00004
2359.34085 0.00070
2357.28747 0.00066
2355.23408 0.00037
2353.18069 0.00115
2351.12731 0.00258
2349.07392 0.00341
2347.02053 0.00335
2344.96715 0.00277
2342.91376 0.00213
2340.86038 0.00158
2338.80699 0.00118
2336.75360 0.00142
2334.70022 0.00211
2332.64683 0.00237
2330.59344 0.00213
2328.54006 0.00156
2326.48667 0.00070
2324.43329 0.00038
2322.37990 0.00127
2320.32651 0.00241
2318.27313 0.00274
2316.21974 0.00282
2314.16635 0.00332
2312.11297 0.00377
2310.05958 0.00381
2308.00620 0.00389
2305.95281 0.00417
2303.89942 0.00427
2301.84604 0.00419
2299.79265 0.00413
2297.73926 0.00401
2295.68588 0.00389
2293.63249 0.00403
2291.57910 0.00420
2289.52572 0.00416
2287.47233 0.00417
2285.41895 0.00418
2283.36556 0.00399
2281.31217 0.00389
2279.25879 0.00421
2277.20540 0.00454
2275.15201 0.00445
2273.09863 0.00412
2271.04524 0.00391
2268.99186 0.00394
2266.93847 0.00417
2264.88508 0.00441
2262.83170 0.00455
2260.77831 0.00467
2258.72492 0.00511
2256.67154 0.00588
2254.61815 0.00682
2252.56477 0.00816
2250.51138 0.00988
2248.45799 0.01175
2246.40461 0.01365
2244.35122 0.01523
2242.29783 0.01589
2240.24445 0.01531
2238.19106 0.01384
2236.13767 0.01197
2234.08429 0.00972
2232.03090 0.00761
2229.97752 0.00643
2227.92413 0.00604
2225.87074 0.00570
2223.81736 0.00534
2221.76397 0.00515
2219.71058 0.00487
2217.65720 0.00448
2215.60381 0.00439
2213.55043 0.00455
2211.49704 0.00456
2209.44365 0.00451
2207.39027 0.00453
2205.33688 0.00462
2203.28349 0.00472
2201.23011 0.00467
2199.17672 0.00462
2197.12334 0.00470
2195.06995 0.00449
2193.01656 0.00398
2190.96318 0.00370
2188.90979 0.00372
2186.85640 0.00377
2184.80302 0.00363
2182.74963 0.00325
2180.69624 0.00310
2178.64286 0.00331
2176.58947 0.00329
2174.53609 0.00300
2172.48270 0.00283
2170.42931 0.00291
2168.37593 0.00294
2166.32254 0.00255
2164.26915 0.00228
2162.21577 0.00257
2160.16238 0.00301
2158.10900 0.00309
2156.05561 0.00278
2154.00222 0.00247
2151.94884 0.00253
2149.89545 0.00278
2147.84206 0.00270
2145.78868 0.00247
2143.73529 0.00237
2141.68191 0.00237
2139.62852 0.00257
2137.57513 0.00267
2135.52175 0.00239
2133.46836 0.00215
2131.41497 0.00216
2129.36159 0.00220
2127.30820 0.00215
2125.25481 0.00210
2123.20143 0.00218
2121.14804 0.00230
2119.09466 0.00228
2117.04127 0.00236
2114.98788 0.00252
2112.93450 0.00250
2110.88111 0.00232
2108.82772 0.00214
2106.77434 0.00220
2104.72095 0.00223
2102.66757 0.00209
2100.61418 0.00206
2098.56079 0.00207
2096.50741 0.00217
2094.45402 0.00246
2092.40063 0.00254
2090.34725 0.00241
2088.29386 0.00240
2086.24048 0.00246
2084.18709 0.00239
2082.13370 0.00210
2080.08032 0.00176
2078.02693 0.00176
2075.97354 0.00201
2073.92016 0.00210
2071.86677 0.00202
2069.81338 0.00194
2067.76000 0.00195
2065.70661 0.00201
2063.65323 0.00194
2061.59984 0.00167
2059.54645 0.00143
2057.49307 0.00155
2055.43968 0.00195
2053.38629 0.00197
2051.33291 0.00170
2049.27952 0.00167
2047.22614 0.00175
2045.17275 0.00172
2043.11936 0.00162
2041.06598 0.00150
2039.01259 0.00136
2036.95920 0.00127
2034.90582 0.00147
2032.85243 0.00175
2030.79905 0.00171
2028.74566 0.00161
2026.69227 0.00172
2024.63889 0.00182
2022.58550 0.00185
2020.53211 0.00184
2018.47873 0.00171
2016.42534 0.00167
2014.37195 0.00190
2012.31857 0.00207
2010.26518 0.00186
2008.21180 0.00152
2006.15841 0.00138
2004.10502 0.00150
2002.05164 0.00174
1999.99825 0.00164
1997.94486 0.00124
1995.89148 0.00101
1993.83809 0.00097
1991.78471 0.00086
1989.73132 0.00094
1987.67793 0.00131
1985.62455 0.00154
1983.57116 0.00154
1981.51777 0.00146
1979.46439 0.00129
1977.41100 0.00117
1975.35762 0.00120
1973.30423 0.00127
1971.25084 0.00143
1969.19746 0.00160
1967.14407 0.00143
1965.09068 0.00124
1963.03730 0.00133
1960.98391 0.00136
1958.93053 0.00105
1956.87714 0.00067
1954.82375 0.00073
1952.77037 0.00109
1950.71698 0.00128
1948.66359 0.00131
1946.61021 0.00129
1944.55682 0.00121
1942.50343 0.00112
1940.45005 0.00116
1938.39666 0.00123
1936.34328 0.00114
1934.28989 0.00095
1932.23650 0.00088
1930.18312 0.00097
1928.12973 0.00123
1926.07634 0.00159
1924.02296 0.00185
1921.96957 0.00193
1919.91619 0.00191
1917.86280 0.00157
1915.80941 0.00106
1913.75603 0.00082
1911.70264 0.00078
1909.64925 0.00081
1907.59587 0.00097
1905.54248 0.00117
1903.48910 0.00133
1901.43571 0.00148
1899.38232 0.00152
1897.32894 0.00136
1895.27555 0.00117
1893.22216 0.00110
1891.16878 0.00106
1889.11539 0.00101
1887.06200 0.00107
1885.00862 0.00121
1882.95523 0.00121
1880.90185 0.00109
1878.84846 0.00106
1876.79507 0.00111
1874.74169 0.00119
1872.68830 0.00113
1870.63491 0.00061
1868.58153 0.00000
1866.52814 0.00028
1864.47476 0.00086
1862.42137 0.00101
1860.36798 0.00098
1858.31460 0.00105
1856.26121 0.00119
1854.20782 0.00127
1852.15444 0.00131
1850.10105 0.00127
1848.04767 0.00103
1845.99428 0.00057
1843.94089 0.00023
1841.88751 0.00041
1839.83412 0.00063
1837.78073 0.00061
1835.72735 0.00075
1833.67396 0.00107
1831.62057 0.00109
1829.56719 0.00075
1827.51380 0.00060
1825.46042 0.00054
1823.40703 0.00048
1821.35364 0.00075
1819.30026 0.00100
1817.24687 0.00089
1815.19348 0.00071
1813.14010 0.00052
1811.08671 0.00016
1809.03333 0.00000
1806.97994 0.00025
1804.92655 0.00062
1802.87317 0.00084
1800.81978 0.00071
1798.76639 0.00044
1796.71301 0.00053
1794.65962 0.00070
1792.60624 0.00051
1790.55285 0.00034
1788.49946 0.00052
1786.44608 0.00068
1784.39269 0.00055
1782.33930 0.00020
1780.28592 0.00003
1778.23253 0.00028
1776.17914 0.00063
1774.12576 0.00060
1772.07237 0.00003
1770.01899 0.00000
1767.96560 0.00075
1765.91221 0.00146
1763.85883 0.00183
1761.80544 0.00192
1759.75205 0.00202
1757.69867 0.00217
1755.64528 0.00234
1753.59190 0.00253
1751.53851 0.00254
1749.48512 0.00270
1747.43174 0.00379
1745.37835 0.00561
1743.32496 0.00735
1741.27158 0.00872
1739.21819 0.01026
1737.16481 0.01204
1735.11142 0.01357
1733.05803 0.01452
1731.00465 0.01534
1728.95126 0.01629
1726.89787 0.01690
1724.84449 0.01682
1722.79110 0.01623
1720.73771 0.01547
1718.68433 0.01405
1716.63094 0.01194
1714.57756 0.01111
1712.52417 0.01095
1710.47078 0.01065
1708.41740 0.01018
1706.36401 0.00970
1704.31062 0.00977
1702.25724 0.01004
1700.20385 0.00945
1698.15047 0.00847
1696.09708 0.00833
1694.04369 0.00890
1691.99031 0.00949
1689.93692 0.00965
1687.88353 0.00977
1685.83015 0.01012
1683.77676 0.01012
1681.72338 0.01035
1679.66999 0.01111
1677.61660 0.01188
1675.56322 0.01244
1673.50983 0.01256
1671.45644 0.01249
1669.40306 0.01274
1667.34967 0.01339
1665.29628 0.01384
1663.24290 0.01377
1661.18951 0.01370
1659.13613 0.01405
1657.08274 0.01416
1655.02935 0.01338
1652.97597 0.01156
1650.92258 0.01150
1648.86919 0.01180
1646.81581 0.01128
1644.76242 0.01181
1642.70904 0.01310
1640.65565 0.01382
1638.60226 0.01387
1636.54888 0.01350
1634.49549 0.01358
1632.44210 0.01448
1630.38872 0.01542
1628.33533 0.01612
1626.28195 0.01679
1624.22856 0.01760
1622.17517 0.01848
1620.12179 0.01960
1618.06840 0.02093
1616.01501 0.02214
1613.96163 0.02321
1611.90824 0.02449
1609.85485 0.02597
1607.80147 0.02748
1605.74808 0.02878
1603.69470 0.02972
1601.64131 0.03059
1599.58792 0.03162
1597.53454 0.03254
1595.48115 0.03328
1593.42776 0.03395
1591.37438 0.03448
1589.32099 0.03475
1587.26761 0.03478
1585.21422 0.03453
1583.16083 0.03382
1581.10745 0.03275
1579.05406 0.03158
1577.00067 0.02968
1574.94729 0.02747
1572.89390 0.02656
1570.84052 0.02555
1568.78713 0.02414
1566.73374 0.02329
1564.68036 0.02242
1562.62697 0.02159
1560.57358 0.02055
1558.52020 0.01751
1556.46681 0.01613
1554.41342 0.01650
1552.36004 0.01673
1550.30665 0.01652
1548.25327 0.01615
1546.19988 0.01570
1544.14649 0.01450
1542.09311 0.01287
1540.03972 0.01241
1537.98633 0.01306
1535.93295 0.01319
1533.87956 0.01274
1531.82618 0.01266
1529.77279 0.01316
1527.71940 0.01349
1525.66602 0.01349
1523.61263 0.01318
1521.55924 0.01238
1519.50586 0.01217
1517.45247 0.01274
1515.39909 0.01327
1513.34570 0.01354
1511.29231 0.01373
1509.23893 0.01354
1507.18554 0.01248
1505.13215 0.01277
1503.07877 0.01387
1501.02538 0.01442
1498.97200 0.01448
1496.91861 0.01451
1494.86522 0.01483
1492.81184 0.01521
1490.75845 0.01512
1488.70506 0.01471
1486.65168 0.01496
1484.59829 0.01519
1482.54490 0.01495
1480.49152 0.01479
1478.43813 0.01495
1476.38475 0.01487
1474.33136 0.01432
1472.27797 0.01412
1470.22459 0.01491
1468.17120 0.01572
1466.11781 0.01639
1464.06443 0.01757
1462.01104 0.01904
1459.95766 0.02030
1457.90427 0.02213
1455.85088 0.02528
1453.79750 0.02738
1451.74411 0.02856
1449.69072 0.02919
1447.63734 0.02917
1445.58395 0.02899
1443.53057 0.02887
1441.47718 0.02845
1439.42379 0.02766
1437.37041 0.02634
1435.31702 0.02477
1433.26363 0.02382
1431.21025 0.02320
1429.15686 0.02272
1427.10347 0.02221
1425.05009 0.02140
1422.99670 0.02062
1420.94332 0.01990
1418.88993 0.01893
1416.83654 0.01877
1414.78316 0.01936
1412.72977 0.01973
1410.67638 0.01970
1408.62300 0.01955
1406.56961 0.01946
1404.51623 0.01955
1402.46284 0.01998
1400.40945 0.02057
1398.35607 0.02105
1396.30268 0.02139
1394.24929 0.02215
1392.19591 0.02347
1390.14252 0.02470
1388.08914 0.02586
1386.03575 0.02733
1383.98236 0.02886
1381.92898 0.03019
1379.87559 0.03127
1377.82220 0.03217
1375.76882 0.03299
1373.71543 0.03376
1371.66204 0.03438
1369.60866 0.03475
1367.55527 0.03496
1365.50189 0.03498
1363.44850 0.03469
1361.39511 0.03430
1359.34173 0.03410
1357.28834 0.03391
1355.23495 0.03356
1353.18157 0.03299
1351.12818 0.03237
1349.07480 0.03190
1347.02141 0.03153
1344.96802 0.03119
1342.91464 0.03074
1340.86125 0.02994
1338.80786 0.02916
1336.75448 0.02894
1334.70109 0.02866
1332.64771 0.02800
1330.59432 0.02726
1328.54093 0.02671
1326.48755 0.02639
1324.43416 0.02618
1322.38077 0.02584
1320.32739 0.02535
1318.27400 0.02493
1316.22061 0.02469
1314.16723 0.02441
1312.11384 0.02415
1310.06046 0.02394
1308.00707 0.02355
1305.95368 0.02317
1303.90030 0.02310
1301.84691 0.02329
1299.79352 0.02352
1297.74014 0.02356
1295.68675 0.02337
1293.63337 0.02324
1291.57998 0.02343
1289.52659 0.02369
1287.47321 0.02391
1285.41982 0.02403
1283.36643 0.02396
1281.31305 0.02387
1279.25966 0.02387
1277.20628 0.02397
1275.15289 0.02419
1273.09950 0.02445
1271.04612 0.02467
1268.99273 0.02493
1266.93934 0.02527
1264.88596 0.02551
1262.83257 0.02566
1260.77918 0.02590
1258.72580 0.02613
1256.67241 0.02603
1254.61903 0.02578
1252.56564 0.02588
1250.51225 0.02629
1248.45887 0.02649
1246.40548 0.02641
1244.35209 0.02635
1242.29871 0.02638
1240.24532 0.02649
1238.19194 0.02658
1236.13855 0.02657
1234.08516 0.02667
1232.03178 0.02693
1229.97839 0.02712
1227.92500 0.02715
1225.87162 0.02707
1223.81823 0.02695
1221.76485 0.02686
1219.71146 0.02680
1217.65807 0.02681
1215.60469 0.02691
1213.55130 0.02695
1211.49791 0.02680
1209.44453 0.02653
1207.39114 0.02638
1205.33775 0.02622
1203.28437 0.02601
1201.23098 0.02607
1199.17760 0.02609
1197.12421 0.02577
1195.07082 0.02546
1193.01744 0.02538
1190.96405 0.02552
1188.91066 0.02575
1186.85728 0.02588
1184.80389 0.02608
1182.75051 0.02638
1180.69712 0.02673
1178.64373 0.02715
1176.59035 0.02762
1174.53696 0.02815
1172.48357 0.02877
1170.43019 0.02939
1168.37680 0.02973
1166.32342 0.02961
1164.27003 0.02913
1162.21664 0.02860
1160.16326 0.02783
1158.10987 0.02689
1156.05648 0.02611
1154.00310 0.02521
1151.94971 0.02423
1149.89632 0.02365
1147.84294 0.02337
1145.78955 0.02296
1143.73617 0.02240
1141.68278 0.02184
1139.62939 0.02133
1137.57601 0.02103
1135.52262 0.02085
1133.46923 0.02071
1131.41585 0.02068
1129.36246 0.02064
1127.30908 0.02053
1125.25569 0.02055
1123.20230 0.02072
1121.14892 0.02087
1119.09553 0.02086
1117.04214 0.02075
1114.98876 0.02070
1112.93537 0.02084
1110.88199 0.02117
1108.82860 0.02121
1106.77521 0.02078
1104.72183 0.02064
1102.66844 0.02105
1100.61505 0.02143
1098.56167 0.02141
1096.50828 0.02122
1094.45490 0.02100
1092.40151 0.02061
1090.34812 0.02030
1088.29474 0.02033
1086.24135 0.02045
1084.18796 0.02055
1082.13458 0.02071
1080.08119 0.02078
1078.02780 0.02064
1075.97442 0.02042
1073.92103 0.02021
1071.86765 0.02000
1069.81426 0.02005
1067.76087 0.02023
1065.70749 0.02018
1063.65410 0.01989
1061.60071 0.01939
1059.54733 0.01871
1057.49394 0.01824
1055.44056 0.01819
1053.38717 0.01815
1051.33378 0.01776
1049.28040 0.01712
1047.22701 0.01685
1045.17362 0.01702
1043.12024 0.01709
1041.06685 0.01685
1039.01347 0.01665
1036.96008 0.01648
1034.90669 0.01580
1032.85331 0.01476
1030.79992 0.01417
1028.74653 0.01403
1026.69315 0.01390
1024.63976 0.01358
1022.58637 0.01293
1020.53299 0.01225
1018.47960 0.01193
1016.42622 0.01180
1014.37283 0.01151
1012.31944 0.01112
1010.26606 0.01077
1008.21267 0.01034
1006.15928 0.00979
1004.10590 0.00947
1002.05251 0.00946
999.99913 0.00937
997.94574 0.00911
995.89235 0.00889
993.83897 0.00881
991.78558 0.00883
989.73219 0.00877
987.67881 0.00853
985.62542 0.00840
983.57204 0.00880
981.51865 0.00972
979.46526 0.01077
977.41188 0.01188
975.35849 0.01326
973.30510 0.01525
971.25172 0.01792
969.19833 0.02049
967.14494 0.02233
965.09156 0.02371
963.03817 0.02471
960.98479 0.02501
958.93140 0.02473
956.87801 0.02424
954.82463 0.02388
952.77124 0.02414
950.71785 0.02519
948.66447 0.02648
946.61108 0.02748
944.55770 0.02837
942.50431 0.02931
940.45092 0.03009
938.39754 0.03043
936.34415 0.03023
934.29076 0.03021
932.23738 0.03078
930.18399 0.03117
928.13061 0.03100
926.07722 0.03087
924.02383 0.03105
921.97045 0.03126
919.91706 0.03156
917.86367 0.03223
915.81029 0.03273
913.75690 0.03245
911.70351 0.03209
909.65013 0.03242
907.59674 0.03300
905.54336 0.03300
903.48997 0.03240
901.43658 0.03210
899.38320 0.03222
897.32981 0.03179
895.27642 0.03138
893.22304 0.03193
891.16965 0.03213
889.11627 0.03117
887.06288 0.02971
885.00949 0.02809
882.95611 0.02660
880.90272 0.02498
878.84933 0.02281
876.79595 0.02092
874.74256 0.01981
872.68918 0.01906
870.63579 0.01851
868.58240 0.01819
866.52902 0.01777
864.47563 0.01666
862.42224 0.01483
860.36886 0.01313
858.31547 0.01225
856.26208 0.01205
854.20870 0.01259
852.15531 0.01344
850.10193 0.01319
848.04854 0.01208
845.99515 0.01147
843.94177 0.01117
841.88838 0.01076
839.83499 0.01040
837.78161 0.01020
835.72822 0.01047
833.67484 0.01093
831.62145 0.01137
829.56806 0.01225
827.51468 0.01336
825.46129 0.01367
823.40790 0.01235
821.35452 0.01046
819.30113 0.00955
817.24775 0.00992
815.19436 0.01181
813.14097 0.01534
811.08759 0.01872
809.03420 0.02035
806.98081 0.02119
804.92743 0.02129
802.87404 0.02026
800.82065 0.01891
798.76727 0.01694
796.71388 0.01513
794.66050 0.01476
792.60711 0.01485
790.55372 0.01532
788.50034 0.01627
786.44695 0.01727
784.39356 0.01850
782.34018 0.01826
780.28679 0.01558
778.23341 0.01249
776.18002 0.01145
774.12663 0.01159
772.07325 0.01103
770.01986 0.01078
767.96647 0.01183
765.91309 0.01413
763.85970 0.01577
761.80632 0.01534
759.75293 0.01462
757.69954 0.01402
755.64616 0.01248
753.59277 0.01173
751.53938 0.01225
749.48600 0.01255
747.43261 0.01292
745.37922 0.01218
743.32584 0.00999
741.27245 0.00778
739.21907 0.00778
737.16568 0.01117
735.11229 0.01366
733.05891 0.01411
731.00552 0.01480
728.95213 0.01530
726.89875 0.01650
724.84536 0.01753
722.79198 0.01546
720.73859 0.01116
718.68520 0.00831
716.63182 0.00835
714.57843 0.01052
712.52504 0.01499
710.47166 0.01966
708.41827 0.01937
706.36489 0.01240
704.31150 0.00312
702.25811 0.00000
700.20473 0.00446
698.15134 0.00769
696.09795 0.00374
694.04457 0.00000
691.99118 0.00272
689.93779 0.01169
687.88441 0.01838
685.83102 0.02045
683.77764 0.02127
681.72425 0.01669
679.67086 0.00000
