3997.94312 0.00000
3995.88973 0.00000
3993.83634 0.00054
3991.78296 0.00121
3989.72957 0.00146
3987.67618 0.00137
3985.62280 0.00117
3983.56941 0.00108
3981.51603 0.00083
3979.46264 0.00112
3977.40925 0.00197
3975.35587 0.00216
3973.30248 0.00166
3971.24909 0.00149
3969.19571 0.00190
3967.14232 0.00246
3965.08893 0.00294
3963.03555 0.00295
3960.98216 0.00270
3958.92878 0.00258
3956.87539 0.00237
3954.82200 0.00204
3952.76862 0.00137
3950.71523 0.00093
3948.66184 0.00138
3946.60846 0.00183
3944.55507 0.00164
3942.50169 0.00112
3940.44830 0.00105
3938.39491 0.00158
3936.34153 0.00255
3934.28814 0.00342
3932.23475 0.00295
3930.18137 0.00131
3928.12798 0.00017
3926.07460 0.00003
3924.02121 0.00082
3921.96782 0.00195
3919.91444 0.00226
3917.86105 0.00164
3915.80766 0.00117
3913.75428 0.00107
3911.70089 0.00130
3909.64750 0.00178
3907.59412 0.00210
3905.54073 0.00265
3903.48735 0.00307
3901.43396 0.00203
3899.38057 0.00106
3897.32719 0.00126
3895.27380 0.00173
3893.22041 0.00205
3891.16703 0.00213
3889.11364 0.00250
3887.06026 0.00314
3885.00687 0.00269
3882.95348 0.00183
3880.90010 0.00188
3878.84671 0.00242
3876.79332 0.00287
3874.73994 0.00229
3872.68655 0.00132
3870.63317 0.00170
3868.57978 0.00221
3866.52639 0.00211
3864.47301 0.00233
3862.41962 0.00279
3860.36623 0.00296
3858.31285 0.00358
3856.25946 0.00533
3854.20607 0.00722
3852.15269 0.00576
3850.09930 0.00348
3848.04592 0.00265
3845.99253 0.00251
3843.93914 0.00229
3841.88576 0.00161
3839.83237 0.00112
3837.77898 0.00159
3835.72560 0.00221
3833.67221 0.00171
3831.61883 0.00050
3829.56544 0.00000
3827.51205 0.00026
3825.45867 0.00038
3823.40528 0.00054
3821.35189 0.00090
3819.29851 0.00083
3817.24512 0.00068
3815.19174 0.00058
3813.13835 0.00049
3811.08496 0.00097
3809.03158 0.00174
3806.97819 0.00188
3804.92480 0.00233
3802.87142 0.00288
3800.81803 0.00121
3798.76464 0.00000
3796.71126 0.00092
3794.65787 0.00233
3792.60449 0.00305
3790.55110 0.00318
3788.49771 0.00369
3786.44433 0.00421
3784.39094 0.00342
3782.33755 0.00191
3780.28417 0.00153
3778.23078 0.00229
3776.17740 0.00243
3774.12401 0.00186
3772.07062 0.00145
3770.01724 0.00139
3767.96385 0.00137
3765.91046 0.00186
3763.85708 0.00277
3761.80369 0.00346
3759.75031 0.00431
3757.69692 0.00490
3755.64353 0.00452
3753.59015 0.00364
3751.53676 0.00239
3749.48337 0.00159
3747.42999 0.00154
3745.37660 0.00081
3743.32321 0.00006
3741.26983 0.00038
3739.21644 0.00106
3737.16306 0.00147
3735.10967 0.00049
3733.05628 0.00011
3731.00290 0.00140
3728.94951 0.00224
3726.89612 0.00182
3724.84274 0.00054
3722.78935 0.00000
3720.73597 0.00088
3718.68258 0.00246
3716.62919 0.00359
3714.57581 0.00321
3712.52242 0.00135
3710.46903 0.00109
3708.41565 0.00268
3706.36226 0.00321
3704.30888 0.00272
3702.25549 0.00165
3700.20210 0.00112
3698.14872 0.00128
3696.09533 0.00121
3694.04194 0.00080
3691.98856 0.00037
3689.93517 0.00082
3687.88179 0.00184
3685.82840 0.00148
3683.77501 0.00066
3681.72163 0.00025
3679.66824 0.00045
3677.61485 0.00145
3675.56147 0.00153
3673.50808 0.00011
3671.45469 0.00000
3669.40131 0.00050
3667.34792 0.00089
3665.29454 0.00162
3663.24115 0.00233
3661.18776 0.00262
3659.13438 0.00219
3657.08099 0.00136
3655.02760 0.00148
3652.97422 0.00220
3650.92083 0.00175
3648.86745 0.00004
3646.81406 0.00031
3644.76067 0.00153
3642.70729 0.00234
3640.65390 0.00289
3638.60051 0.00322
3636.54713 0.00350
3634.49374 0.00361
3632.44036 0.00404
3630.38697 0.00574
3628.33358 0.00657
3626.28020 0.00465
3624.22681 0.00335
3622.17342 0.00323
3620.12004 0.00315
3618.06665 0.00243
3616.01326 0.00183
3613.95988 0.00148
3611.90649 0.00223
3609.85311 0.00377
3607.79972 0.00392
3605.74633 0.00337
3603.69295 0.00352
3601.63956 0.00377
3599.58617 0.00358
3597.53279 0.00302
3595.47940 0.00263
3593.42602 0.00298
3591.37263 0.00381
3589.31924 0.00399
3587.26586 0.00262
3585.21247 0.00173
3583.15908 0.00222
3581.10570 0.00270
3579.05231 0.00295
3576.99893 0.00298
3574.94554 0.00278
3572.89215 0.00270
3570.83877 0.00234
3568.78538 0.00175
3566.73199 0.00242
3564.67861 0.00378
3562.62522 0.00392
3560.57183 0.00312
3558.51845 0.00247
3556.46506 0.00264
3554.41168 0.00300
3552.35829 0.00300
3550.30490 0.00300
3548.25152 0.00346
3546.19813 0.00445
3544.14474 0.00512
3542.09136 0.00510
3540.03797 0.00480
3537.98459 0.00468
3535.93120 0.00488
3533.87781 0.00502
3531.82443 0.00512
3529.77104 0.00499
3527.71765 0.00475
3525.66427 0.00462
3523.61088 0.00429
3521.55750 0.00402
3519.50411 0.00400
3517.45072 0.00386
3515.39734 0.00384
3513.34395 0.00420
3511.29056 0.00431
3509.23718 0.00381
3507.18379 0.00337
3505.13040 0.00352
3503.07702 0.00354
3501.02363 0.00317
3498.97025 0.00300
3496.91686 0.00264
3494.86347 0.00221
3492.81009 0.00295
3490.75670 0.00466
3488.70331 0.00585
3486.64993 0.00590
3484.59654 0.00504
3482.54316 0.00406
3480.48977 0.00372
3478.43638 0.00349
3476.38300 0.00311
3474.32961 0.00377
3472.27622 0.00587
3470.22284 0.00736
3468.16945 0.00669
3466.11607 0.00498
3464.06268 0.00334
3462.00929 0.00229
3459.95591 0.00280
3457.90252 0.00418
3455.84913 0.00450
3453.79575 0.00414
3451.74236 0.00407
3449.68897 0.00397
3447.63559 0.00392
3445.58220 0.00384
3443.52882 0.00332
3441.47543 0.00282
3439.42204 0.00295
3437.36866 0.00369
3435.31527 0.00426
3433.26188 0.00387
3431.20850 0.00346
3429.15511 0.00407
3427.10173 0.00502
3425.04834 0.00583
3422.99495 0.00567
3420.94157 0.00456
3418.88818 0.00390
3416.83479 0.00357
3414.78141 0.00344
3412.72802 0.00371
3410.67464 0.00370
3408.62125 0.00418
3406.56786 0.00569
3404.51448 0.00607
3402.46109 0.00491
3400.40770 0.00451
3398.35432 0.00510
3396.30093 0.00493
3394.24754 0.00389
3392.19416 0.00410
3390.14077 0.00526
3388.08739 0.00504
3386.03400 0.00380
3383.98061 0.00315
3381.92723 0.00356
3379.87384 0.00461
3377.82045 0.00502
3375.76707 0.00397
3373.71368 0.00290
3371.66030 0.00294
3369.60691 0.00324
3367.55352 0.00338
3365.50014 0.00358
3363.44675 0.00398
3361.39336 0.00488
3359.33998 0.00582
3357.28659 0.00570
3355.23321 0.00461
3353.17982 0.00405
3351.12643 0.00461
3349.07305 0.00548
3347.01966 0.00560
3344.96627 0.00485
3342.91289 0.00449
3340.85950 0.00536
3338.80611 0.00633
3336.75273 0.00587
3334.69934 0.00461
3332.64596 0.00393
3330.59257 0.00386
3328.53918 0.00396
3326.48580 0.00411
3324.43241 0.00416
3322.37902 0.00379
3320.32564 0.00324
3318.27225 0.00348
3316.21887 0.00405
3314.16548 0.00357
3312.11209 0.00292
3310.05871 0.00315
3308.00532 0.00325
3305.95193 0.00339
3303.89855 0.00421
3301.84516 0.00480
3299.79178 0.00475
3297.73839 0.00445
3295.68500 0.00433
3293.63162 0.00442
3291.57823 0.00413
3289.52484 0.00379
3287.47146 0.00398
3285.41807 0.00408
3283.36469 0.00385
3281.31130 0.00387
3279.25791 0.00413
3277.20453 0.00439
3275.15114 0.00474
3273.09775 0.00515
3271.04437 0.00540
3268.99098 0.00516
3266.93759 0.00440
3264.88421 0.00391
3262.83082 0.00399
3260.77744 0.00397
3258.72405 0.00386
3256.67066 0.00378
3254.61728 0.00343
3252.56389 0.00329
3250.51050 0.00371
3248.45712 0.00415
3246.40373 0.00434
3244.35035 0.00429
3242.29696 0.00406
3240.24357 0.00412
3238.19019 0.00412
3236.13680 0.00320
3234.08341 0.00263
3232.03003 0.00314
3229.97664 0.00352
3227.92326 0.00335
3225.86987 0.00296
3223.81648 0.00257
3221.76310 0.00248
3219.70971 0.00285
3217.65632 0.00307
3215.60294 0.00293
3213.54955 0.00306
3211.49616 0.00358
3209.44278 0.00404
3207.38939 0.00426
3205.33601 0.00420
3203.28262 0.00386
3201.22923 0.00312
3199.17585 0.00210
3197.12246 0.00174
3195.06907 0.00188
3193.01569 0.00208
3190.96230 0.00246
3188.90892 0.00276
3186.85553 0.00331
3184.80214 0.00361
3182.74876 0.00308
3180.69537 0.00283
3178.64198 0.00287
3176.58860 0.00240
3174.53521 0.00205
3172.48183 0.00206
3170.42844 0.00225
3168.37505 0.00253
3166.32167 0.00256
3164.26828 0.00234
3162.21489 0.00195
3160.16151 0.00142
3158.10812 0.00121
3156.05473 0.00168
3154.00135 0.00239
3151.94796 0.00283
3149.89458 0.00268
3147.84119 0.00205
3145.78780 0.00155
3143.73442 0.00158
3141.68103 0.00208
3139.62764 0.00257
3137.57426 0.00249
3135.52087 0.00193
3133.46749 0.00162
3131.41410 0.00164
3129.36071 0.00181
3127.30733 0.00230
3125.25394 0.00255
3123.20055 0.00186
3121.14717 0.00104
3119.09378 0.00098
3117.04040 0.00129
3114.98701 0.00167
3112.93362 0.00180
3110.88024 0.00129
3108.82685 0.00069
3106.77346 0.00050
3104.72008 0.00077
3102.66669 0.00117
3100.61330 0.00156
3098.55992 0.00208
3096.50653 0.00239
3094.45315 0.00207
3092.39976 0.00151
3090.34637 0.00138
3088.29299 0.00130
3086.23960 0.00073
3084.18621 0.00014
3082.13283 0.00000
3080.07944 0.00029
3078.02606 0.00082
3075.97267 0.00124
3073.91928 0.00120
3071.86590 0.00111
3069.81251 0.00123
3067.75912 0.00108
3065.70574 0.00075
3063.65235 0.00073
3061.59897 0.00106
3059.54558 0.00154
3057.49219 0.00176
3055.43881 0.00139
3053.38542 0.00097
3051.33203 0.00106
3049.27865 0.00110
3047.22526 0.00108
3045.17187 0.00128
3043.11849 0.00108
3041.06510 0.00059
3039.01172 0.00037
3036.95833 0.00040
3034.90494 0.00056
3032.85156 0.00055
3030.79817 0.00048
3028.74478 0.00074
3026.69140 0.00077
3024.63801 0.00029
3022.58463 0.00024
3020.53124 0.00057
3018.47785 0.00093
3016.42447 0.00159
3014.37108 0.00177
3012.31769 0.00102
3010.26431 0.00034
3008.21092 0.00035
3006.15754 0.00092
3004.10415 0.00158
3002.05076 0.00169
2999.99738 0.00136
2997.94399 0.00134
2995.89060 0.00155
2993.83722 0.00147
2991.78383 0.00103
2989.73044 0.00062
2987.67706 0.00072
2985.62367 0.00107
2983.57029 0.00126
2981.51690 0.00159
2979.46351 0.00222
2977.41013 0.00264
2975.35674 0.00251
2973.30335 0.00201
2971.24997 0.00171
2969.19658 0.00181
2967.14320 0.00202
2965.08981 0.00246
2963.03642 0.00320
2960.98304 0.00356
2958.92965 0.00365
2956.87626 0.00407
2954.82288 0.00454
2952.76949 0.00499
2950.71611 0.00558
2948.66272 0.00609
2946.60933 0.00654
2944.55595 0.00675
2942.50256 0.00679
2940.44917 0.00687
2938.39579 0.00664
2936.34240 0.00623
2934.28901 0.00639
2932.23563 0.00701
2930.18224 0.00707
2928.12886 0.00678
2926.07547 0.00689
2924.02208 0.00711
2921.96870 0.00708
2919.91531 0.00680
2917.86192 0.00642
2915.80854 0.00618
2913.75515 0.00583
2911.70177 0.00510
2909.64838 0.00437
2907.59499 0.00385
2905.54161 0.00355
2903.48822 0.00353
2901.43483 0.00366
2899.38145 0.00349
2897.32806 0.00308
2895.27468 0.00304
2893.22129 0.00329
2891.16790 0.00303
2889.11452 0.00238
2887.06113 0.00239
2885.00774 0.00295
2882.95436 0.00317
2880.90097 0.00284
2878.84758 0.00257
2876.79420 0.00283
2874.74081 0.00318
2872.68743 0.00324
2870.63404 0.00315
2868.58065 0.00295
2866.52727 0.00266
2864.47388 0.00264
2862.42049 0.00273
2860.36711 0.00275
2858.31372 0.00296
2856.26034 0.00302
2854.20695 0.00260
2852.15356 0.00204
2850.10018 0.00177
2848.04679 0.00179
2845.99340 0.00168
2843.94002 0.00145
2841.88663 0.00135
2839.83325 0.00127
2837.77986 0.00114
2835.72647 0.00090
2833.67309 0.00050
2831.61970 0.00036
2829.56631 0.00059
2827.51293 0.00071
2825.45954 0.00058
2823.40616 0.00040
2821.35277 0.00039
2819.29938 0.00074
2817.24600 0.00105
2815.19261 0.00090
2813.13922 0.00064
2811.08584 0.00046
2809.03245 0.00033
2806.97906 0.00022
2804.92568 0.00025
2802.87229 0.00056
2800.81891 0.00078
2798.76552 0.00078
2796.71213 0.00107
2794.65875 0.00145
2792.60536 0.00129
2790.55197 0.00096
2788.49859 0.00067
2786.44520 0.00044
2784.39182 0.00060
2782.33843 0.00066
2780.28504 0.00022
2778.23166 0.00000
2776.17827 0.00009
2774.12488 0.00009
2772.07150 0.00034
2770.01811 0.00079
2767.96473 0.00078
2765.91134 0.00039
2763.85795 0.00018
2761.80457 0.00041
2759.75118 0.00069
2757.69779 0.00055
2755.64441 0.00033
2753.59102 0.00041
2751.53763 0.00042
2749.48425 0.00016
2747.43086 0.00004
2745.37748 0.00035
2743.32409 0.00067
2741.27070 0.00069
2739.21732 0.00059
2737.16393 0.00051
2735.11054 0.00049
2733.05716 0.00048
2731.00377 0.00041
2728.95039 0.00025
2726.89700 0.00011
2724.84361 0.00019
2722.79023 0.00041
2720.73684 0.00048
2718.68345 0.00034
2716.63007 0.00018
2714.57668 0.00027
2712.52330 0.00051
2710.46991 0.00049
2708.41652 0.00022
2706.36314 0.00000
2704.30975 0.00000
2702.25636 0.00017
2700.20298 0.00028
2698.14959 0.00034
2696.09620 0.00057
2694.04282 0.00086
2691.98943 0.00102
2689.93605 0.00110
2687.88266 0.00098
2685.82927 0.00058
2683.77589 0.00030
2681.72250 0.00045
2679.66911 0.00085
2677.61573 0.00095
2675.56234 0.00053
2673.50896 0.00031
2671.45557 0.00056
2669.40218 0.00055
2667.34880 0.00024
2665.29541 0.00027
2663.24202 0.00064
2661.18864 0.00089
2659.13525 0.00085
2657.08187 0.00068
2655.02848 0.00037
2652.97509 0.00015
2650.92171 0.00032
2648.86832 0.00055
2646.81493 0.00060
2644.76155 0.00056
2642.70816 0.00038
2640.65477 0.00033
2638.60139 0.00051
2636.54800 0.00062
2634.49462 0.00069
2632.44123 0.00063
2630.38784 0.00036
2628.33446 0.00019
2626.28107 0.00037
2624.22768 0.00077
2622.17430 0.00112
2620.12091 0.00109
2618.06753 0.00063
2616.01414 0.00031
2613.96075 0.00011
2611.90737 0.00000
2609.85398 0.00033
2607.80059 0.00083
2605.74721 0.00096
2603.69382 0.00080
2601.64044 0.00072
2599.58705 0.00085
2597.53366 0.00100
2595.48028 0.00101
2593.42689 0.00095
2591.37350 0.00089
2589.32012 0.00074
2587.26673 0.00056
2585.21334 0.00058
2583.15996 0.00071
2581.10657 0.00098
2579.05319 0.00121
2576.99980 0.00108
2574.94641 0.00095
2572.89303 0.00114
2570.83964 0.00135
2568.78625 0.00116
2566.73287 0.00100
2564.67948 0.00102
2562.62610 0.00078
2560.57271 0.00057
2558.51932 0.00056
2556.46594 0.00053
2554.41255 0.00051
2552.35916 0.00047
2550.30578 0.00040
2548.25239 0.00055
2546.19901 0.00074
2544.14562 0.00077
2542.09223 0.00073
2540.03885 0.00072
2537.98546 0.00078
2535.93207 0.00079
2533.87869 0.00078
2531.82530 0.00080
2529.77191 0.00077
2527.71853 0.00065
2525.66514 0.00055
2523.61176 0.00067
2521.55837 0.00095
2519.50498 0.00110
2517.45160 0.00108
2515.39821 0.00095
2513.34482 0.00074
2511.29144 0.00066
2509.23805 0.00077
2507.18467 0.00083
2505.13128 0.00078
2503.07789 0.00089
2501.02451 0.00104
2498.97112 0.00097
2496.91773 0.00097
2494.86435 0.00113
2492.81096 0.00119
2490.75758 0.00103
2488.70419 0.00072
2486.65080 0.00043
2484.59742 0.00028
2482.54403 0.00041
2480.49064 0.00071
2478.43726 0.00096
2476.38387 0.00114
2474.33048 0.00134
2472.27710 0.00149
2470.22371 0.00144
2468.17033 0.00126
2466.11694 0.00124
2464.06355 0.00139
2462.01017 0.00133
2459.95678 0.00107
2457.90339 0.00112
2455.85001 0.00141
2453.79662 0.00159
2451.74324 0.00160
2449.68985 0.00160
2447.63646 0.00159
2445.58308 0.00145
2443.52969 0.00131
2441.47630 0.00133
2439.42292 0.00142
2437.36953 0.00146
2435.31615 0.00138
2433.26276 0.00144
2431.20937 0.00164
2429.15599 0.00173
2427.10260 0.00184
2425.04921 0.00189
2422.99583 0.00167
2420.94244 0.00148
2418.88906 0.00162
2416.83567 0.00169
2414.78228 0.00156
2412.72890 0.00176
2410.67551 0.00220
2408.62212 0.00242
2406.56874 0.00257
2404.51535 0.00238
2402.46196 0.00178
2400.40858 0.00162
2398.35519 0.00203
2396.30181 0.00237
2394.24842 0.00246
2392.19503 0.00240
2390.14165 0.00233
2388.08826 0.00231
2386.03487 0.00219
2383.98149 0.00204
2381.92810 0.00199
2379.87472 0.00219
2377.82133 0.00239
2375.76794 0.00219
2373.71456 0.00176
2371.66117 0.00126
2369.60778 0.00094
2367.55440 0.00081
2365.50101 0.00042
2363.44763 0.00000
2361.39424 0.00008
2359.34085 0.00055
2357.28747 0.00105
2355.23408 0.00141
2353.18069 0.00139
2351.12731 0.00126
2349.07392 0.00113
2347.02053 0.00087
2344.96715 0.00076
2342.91376 0.00105
2340.86038 0.00135
2338.80699 0.00128
2336.75360 0.00131
2334.70022 0.00181
2332.64683 0.00229
2330.59344 0.00229
2328.54006 0.00190
2326.48667 0.00096
2324.43329 0.00000
2322.37990 0.00009
2320.32651 0.00069
2318.27313 0.00083
2316.21974 0.00083
2314.16635 0.00117
2312.11297 0.00182
2310.05958 0.00229
2308.00620 0.00245
2305.95281 0.00269
2303.89942 0.00269
2301.84604 0.00217
2299.79265 0.00160
2297.73926 0.00132
2295.68588 0.00137
2293.63249 0.00156
2291.57910 0.00146
2289.52572 0.00136
2287.47233 0.00163
2285.41895 0.00165
2283.36556 0.00128
2281.31217 0.00133
2279.25879 0.00182
2277.20540 0.00208
2275.15201 0.00200
2273.09863 0.00175
2271.04524 0.00138
2268.99186 0.00134
2266.93847 0.00181
2264.88508 0.00212
2262.83170 0.00195
2260.77831 0.00194
2258.72492 0.00273
2256.67154 0.00404
2254.61815 0.00541
2252.56477 0.00740
2250.51138 0.01014
2248.45799 0.01299
2246.40461 0.01565
2244.35122 0.01776
2242.29783 0.01858
2240.24445 0.01785
2238.19106 0.01599
2236.13767 0.01341
2234.08429 0.01042
2232.03090 0.00766
2229.97752 0.00583
2227.92413 0.00492
2225.87074 0.00433
2223.81736 0.00381
2221.76397 0.00347
2219.71058 0.00318
2217.65720 0.00292
2215.60381 0.00296
2213.55043 0.00324
2211.49704 0.00351
2209.44365 0.00371
2207.39027 0.00367
2205.33688 0.00335
2203.28349 0.00323
2201.23011 0.00334
2199.17672 0.00342
2197.12334 0.00358
2195.06995 0.00344
2193.01656 0.00288
2190.96318 0.00241
2188.90979 0.00220
2186.85640 0.00220
2184.80302 0.00227
2182.74963 0.00224
2180.69624 0.00214
2178.64286 0.00199
2176.58947 0.00173
2174.53609 0.00153
2172.48270 0.00135
2170.42931 0.00128
2168.37593 0.00138
2166.32254 0.00120
2164.26915 0.00088
2162.21577 0.00090
2160.16238 0.00114
2158.10900 0.00119
2156.05561 0.00085
2154.00222 0.00050
2151.94884 0.00054
2149.89545 0.00079
2147.84206 0.00089
2145.78868 0.00085
2143.73529 0.00076
2141.68191 0.00064
2139.62852 0.00074
2137.57513 0.00104
2135.52175 0.00110
2133.46836 0.00083
2131.41497 0.00055
2129.36159 0.00044
2127.30820 0.00051
2125.25481 0.00075
2123.20143 0.00091
2121.14804 0.00071
2119.09466 0.00051
2117.04127 0.00071
2114.98788 0.00108
2112.93450 0.00118
2110.88111 0.00099
2108.82772 0.00063
2106.77434 0.00038
2104.72095 0.00046
2102.66757 0.00060
2100.61418 0.00055
2098.56079 0.00036
2096.50741 0.00029
2094.45402 0.00042
2092.40063 0.00045
2090.34725 0.00040
2088.29386 0.00050
2086.24048 0.00065
2084.18709 0.00062
2082.13370 0.00049
2080.08032 0.00045
2078.02693 0.00049
2075.97354 0.00043
2073.92016 0.00026
2071.86677 0.00022
2069.81338 0.00029
2067.76000 0.00035
2065.70661 0.00039
2063.65323 0.00034
2061.59984 0.00021
2059.54645 0.00000
2057.49307 0.00002
2055.43968 0.00032
2053.38629 0.00043
2051.33291 0.00033
2049.27952 0.00031
2047.22614 0.00035
2045.17275 0.00040
2043.11936 0.00042
2041.06598 0.00026
2039.01259 0.00008
2036.95920 0.00014
2034.90582 0.00030
2032.85243 0.00027
2030.79905 0.00025
2028.74566 0.00050
2026.69227 0.00067
2024.63889 0.00056
2022.58550 0.00063
2020.53211 0.00103
2018.47873 0.00115
2016.42534 0.00084
2014.37195 0.00069
2012.31857 0.00089
2010.26518 0.00098
2008.21180 0.00067
2006.15841 0.00042
2004.10502 0.00060
2002.05164 0.00092
1999.99825 0.00088
1997.94486 0.00055
1995.89148 0.00042
1993.83809 0.00032
1991.78471 0.00000
1989.73132 0.00008
1987.67793 0.00054
1985.62455 0.00063
1983.57116 0.00048
1981.51777 0.00052
1979.46439 0.00069
1977.41100 0.00074
1975.35762 0.00069
1973.30423 0.00073
1971.25084 0.00089
1969.19746 0.00091
1967.14407 0.00069
1965.09068 0.00047
1963.03730 0.00041
1960.98391 0.00051
1958.93053 0.00069
1956.87714 0.00069
1954.82375 0.00051
1952.77037 0.00044
1950.71698 0.00051
1948.66359 0.00063
1946.61021 0.00075
1944.55682 0.00082
1942.50343 0.00077
1940.45005 0.00064
1938.39666 0.00062
1936.34328 0.00067
1934.28989 0.00056
1932.23650 0.00041
1930.18312 0.00050
1928.12973 0.00082
1926.07634 0.00116
1924.02296 0.00137
1921.96957 0.00133
1919.91619 0.00102
1917.86280 0.00061
1915.80941 0.00039
1913.75603 0.00042
1911.70264 0.00049
1909.64925 0.00059
1907.59587 0.00050
1905.54248 0.00026
1903.48910 0.00031
1901.43571 0.00052
1899.38232 0.00056
1897.32894 0.00042
1895.27555 0.00030
1893.22216 0.00044
1891.16878 0.00073
1889.11539 0.00093
1887.06200 0.00094
1885.00862 0.00078
1882.95523 0.00058
1880.90185 0.00062
1878.84846 0.00075
1876.79507 0.00076
1874.74169 0.00079
1872.68830 0.00092
1870.63491 0.00079
1868.58153 0.00019
1866.52814 0.00000
1864.47476 0.00043
1862.42137 0.00078
1860.36798 0.00086
1858.31460 0.00095
1856.26121 0.00101
1854.20782 0.00089
1852.15444 0.00081
1850.10105 0.00085
1848.04767 0.00085
1845.99428 0.00062
1843.94089 0.00017
1841.88751 0.00019
1839.83412 0.00040
1837.78073 0.00027
1835.72735 0.00017
1833.67396 0.00048
1831.62057 0.00072
1829.56719 0.00048
1827.51380 0.00019
1825.46042 0.00006
1823.40703 0.00004
1821.35364 0.00020
1819.30026 0.00034
1817.24687 0.00027
1815.19348 0.00021
1813.14010 0.00028
1811.08671 0.00013
1809.03333 0.00000
1806.97994 0.00012
1804.92655 0.00014
1802.87317 0.00003
1800.81978 0.00002
1798.76639 0.00012
1796.71301 0.00032
1794.65962 0.00054
1792.60624 0.00065
1790.55285 0.00050
1788.49946 0.00029
1786.44608 0.00018
1784.39269 0.00008
1782.33930 0.00000
1780.28592 0.00006
1778.23253 0.00023
1776.17914 0.00032
1774.12576 0.00031
1772.07237 0.00030
1770.01899 0.00062
1767.96560 0.00116
1765.91221 0.00158
1763.85883 0.00174
1761.80544 0.00172
1759.75205 0.00196
1757.69867 0.00221
1755.64528 0.00218
1753.59190 0.00244
1751.53851 0.00322
1749.48512 0.00435
1747.43174 0.00564
1745.37835 0.00737
1743.32496 0.00965
1741.27158 0.01219
1739.21819 0.01484
1737.16481 0.01717
1735.11142 0.01922
1733.05803 0.02084
1731.00465 0.02169
1728.95126 0.02253
1726.89787 0.02314
1724.84449 0.02308
1722.79110 0.02250
1720.73771 0.02190
1718.68433 0.02083
1716.63094 0.01874
1714.57756 0.01737
1712.52417 0.01692
1710.47078 0.01651
1708.41740 0.01589
1706.36401 0.01529
1704.31062 0.01508
1702.25724 0.01500
1700.20385 0.01420
1698.15047 0.01331
1696.09708 0.01335
1694.04369 0.01384
1691.99031 0.01436
1689.93692 0.01467
1687.88353 0.01504
1685.83015 0.01593
1683.77676 0.01668
1681.72338 0.01678
1679.66999 0.01728
1677.61660 0.01816
1675.56322 0.01898
1673.50983 0.01937
1671.45644 0.01970
1669.40306 0.02018
1667.34967 0.02065
1665.29628 0.02112
1663.24290 0.02125
1661.18951 0.02107
1659.13613 0.02121
1657.08274 0.02158
1655.02935 0.02184
1652.97597 0.02094
1650.92258 0.01982
1648.86919 0.01955
1646.81581 0.01919
1644.76242 0.01917
1642.70904 0.01962
1640.65565 0.02008
1638.60226 0.02065
1636.54888 0.02119
1634.49549 0.02157
1632.44210 0.02243
1630.38872 0.02356
1628.33533 0.02470
1626.28195 0.02593
1624.22856 0.02719
1622.17517 0.02848
1620.12179 0.03005
1618.06840 0.03197
1616.01501 0.03430
1613.96163 0.03640
1611.90824 0.03813
1609.85485 0.03982
1607.80147 0.04179
1605.74808 0.04395
1603.69470 0.04585
1601.64131 0.04753
1599.58792 0.04915
1597.53454 0.05052
1595.48115 0.05175
1593.42776 0.05289
1591.37438 0.05352
1589.32099 0.05367
1587.26761 0.05357
1585.21422 0.05306
1583.16083 0.05199
1581.10745 0.05055
1579.05406 0.04894
1577.00067 0.04624
1574.94729 0.04288
1572.89390 0.04125
1570.84052 0.03978
1568.78713 0.03754
1566.73374 0.03576
1564.68036 0.03434
1562.62697 0.03340
1560.57358 0.03285
1558.52020 0.03058
1556.46681 0.02839
1554.41342 0.02770
1552.36004 0.02717
1550.30665 0.02647
1548.25327 0.02568
1546.19988 0.02478
1544.14649 0.02339
1542.09311 0.02217
1540.03972 0.02146
1537.98633 0.02133
1535.93295 0.02168
1533.87956 0.02167
1531.82618 0.02109
1529.77279 0.02061
1527.71940 0.02027
1525.66602 0.02031
1523.61263 0.02053
1521.55924 0.02018
1519.50586 0.01996
1517.45247 0.02000
1515.39909 0.02018
1513.34570 0.02071
1511.29231 0.02132
1509.23893 0.02168
1507.18554 0.02152
1505.13215 0.02139
1503.07877 0.02171
1501.02538 0.02205
1498.97200 0.02219
1496.91861 0.02211
1494.86522 0.02234
1492.81184 0.02283
1490.75845 0.02297
1488.70506 0.02273
1486.65168 0.02281
1484.59829 0.02285
1482.54490 0.02267
1480.49152 0.02257
1478.43813 0.02264
1476.38475 0.02257
1474.33136 0.02215
1472.27797 0.02181
1470.22459 0.02220
1468.17120 0.02286
1466.11781 0.02385
1464.06443 0.02571
1462.01104 0.02786
1459.95766 0.03002
1457.90427 0.03359
1455.85088 0.03836
1453.79750 0.04098
1451.74411 0.04250
1449.69072 0.04327
1447.63734 0.04300
1445.58395 0.04232
1443.53057 0.04170
1441.47718 0.04083
1439.42379 0.03974
1437.37041 0.03818
1435.31702 0.03649
1433.26363 0.03566
1431.21025 0.03479
1429.15686 0.03348
1427.10347 0.03242
1425.05009 0.03160
1422.99670 0.03082
1420.94332 0.03028
1418.88993 0.02969
1416.83654 0.02918
1414.78316 0.02915
1412.72977 0.02923
1410.67638 0.02910
1408.62300 0.02888
1406.56961 0.02892
1404.51623 0.02937
1402.46284 0.03010
1400.40945 0.03099
1398.35607 0.03209
1396.30268 0.03337
1394.24929 0.03486
1392.19591 0.03652
1390.14252 0.03825
1388.08914 0.04022
1386.03575 0.04237
1383.98236 0.04426
1381.92898 0.04608
1379.87559 0.04788
1377.82220 0.04937
1375.76882 0.05067
1373.71543 0.05191
1371.66204 0.05266
1369.60866 0.05295
1367.55527 0.05302
1365.50189 0.05294
1363.44850 0.05270
1361.39511 0.05216
1359.34173 0.05136
1357.28834 0.05065
1355.23495 0.05014
1353.18157 0.04951
1351.12818 0.04880
1349.07480 0.04817
1347.02141 0.04744
1344.96802 0.04651
1342.91464 0.04562
1340.86125 0.04471
1338.80786 0.04372
1336.75448 0.04298
1334.70109 0.04225
1332.64771 0.04135
1330.59432 0.04050
1328.54093 0.03978
1326.48755 0.03922
1324.43416 0.03875
1322.38077 0.03822
1320.32739 0.03764
1318.27400 0.03709
1316.22061 0.03663
1314.16723 0.03616
1312.11384 0.03570
1310.06046 0.03530
1308.00707 0.03490
1305.95368 0.03444
1303.90030 0.03397
1301.84691 0.03374
1299.79352 0.03389
1297.74014 0.03409
1295.68675 0.03401
1293.63337 0.03382
1291.57998 0.03387
1289.52659 0.03404
1287.47321 0.03414
1285.41982 0.03433
1283.36643 0.03461
1281.31305 0.03480
1279.25966 0.03483
1277.20628 0.03501
1275.15289 0.03559
1273.09950 0.03627
1271.04612 0.03648
1268.99273 0.03636
1266.93934 0.03637
1264.88596 0.03654
1262.83257 0.03678
1260.77918 0.03710
1258.72580 0.03737
1256.67241 0.03752
1254.61903 0.03754
1252.56564 0.03751
1250.51225 0.03762
1248.45887 0.03785
1246.40548 0.03805
1244.35209 0.03812
1242.29871 0.03813
1240.24532 0.03830
1238.19194 0.03857
1236.13855 0.03868
1234.08516 0.03869
1232.03178 0.03891
1229.97839 0.03921
1227.92500 0.03929
1225.87162 0.03908
1223.81823 0.03872
1221.76485 0.03855
1219.71146 0.03848
1217.65807 0.03838
1215.60469 0.03838
1213.55130 0.03838
1211.49791 0.03805
1209.44453 0.03750
1207.39114 0.03724
1205.33775 0.03738
1203.28437 0.03749
1201.23098 0.03745
1199.17760 0.03729
1197.12421 0.03698
1195.07082 0.03669
1193.01744 0.03657
1190.96405 0.03645
1188.91066 0.03630
1186.85728 0.03638
1184.80389 0.03673
1182.75051 0.03712
1180.69712 0.03765
1178.64373 0.03853
1176.59035 0.03961
1174.53696 0.04039
1172.48357 0.04090
1170.43019 0.04154
1168.37680 0.04205
1166.32342 0.04196
1164.27003 0.04136
1162.21664 0.04048
1160.16326 0.03939
1158.10987 0.03819
1156.05648 0.03699
1154.00310 0.03574
1151.94971 0.03428
1149.89632 0.03277
1147.84294 0.03165
1145.78955 0.03083
1143.73617 0.02997
1141.68278 0.02915
1139.62939 0.02866
1137.57601 0.02838
1135.52262 0.02798
1133.46923 0.02764
1131.41585 0.02752
1129.36246 0.02730
1127.30908 0.02686
1125.25569 0.02662
1123.20230 0.02674
1121.14892 0.02691
1119.09553 0.02708
1117.04214 0.02744
1114.98876 0.02781
1112.93537 0.02792
1110.88199 0.02785
1108.82860 0.02770
1106.77521 0.02752
1104.72183 0.02732
1102.66844 0.02721
1100.61505 0.02730
1098.56167 0.02739
1096.50828 0.02735
1094.45490 0.02707
1092.40151 0.02636
1090.34812 0.02574
1088.29474 0.02576
1086.24135 0.02589
1084.18796 0.02581
1082.13458 0.02572
1080.08119 0.02559
1078.02780 0.02555
1075.97442 0.02565
1073.92103 0.02578
1071.86765 0.02589
1069.81426 0.02575
1067.76087 0.02544
1065.70749 0.02517
1063.65410 0.02485
1061.60071 0.02446
1059.54733 0.02377
1057.49394 0.02286
1055.44056 0.02234
1053.38717 0.02207
1051.33378 0.02167
1049.28040 0.02123
1047.22701 0.02094
1045.17362 0.02088
1043.12024 0.02077
1041.06685 0.02046
1039.01347 0.02006
1036.96008 0.01952
1034.90669 0.01884
1032.85331 0.01815
1030.79992 0.01748
1028.74653 0.01683
1026.69315 0.01613
1024.63976 0.01533
1022.58637 0.01440
1020.53299 0.01363
1018.47960 0.01312
1016.42622 0.01260
1014.37283 0.01193
1012.31944 0.01133
1010.26606 0.01076
1008.21267 0.01012
1006.15928 0.00965
1004.10590 0.00942
1002.05251 0.00923
999.99913 0.00914
997.94574 0.00920
995.89235 0.00908
993.83897 0.00877
991.78558 0.00863
989.73219 0.00855
987.67881 0.00836
985.62542 0.00853
983.57204 0.00953
981.51865 0.01086
979.46526 0.01205
977.41188 0.01353
975.35849 0.01582
973.30510 0.01903
971.25172 0.02286
969.19833 0.02659
967.14494 0.02977
965.09156 0.03228
963.03817 0.03349
960.98479 0.03360
958.93140 0.03327
956.87801 0.03255
954.82463 0.03190
952.77124 0.03214
950.71785 0.03355
948.66447 0.03544
946.61108 0.03734
944.55770 0.03944
942.50431 0.04124
940.45092 0.04224
938.39754 0.04274
936.34415 0.04291
934.29076 0.04300
932.23738 0.04320
930.18399 0.04319
928.13061 0.04299
926.07722 0.04304
924.02383 0.04324
921.97045 0.04349
919.91706 0.04411
917.86367 0.04489
915.81029 0.04525
913.75690 0.04496
911.70351 0.04442
909.65013 0.04446
907.59674 0.04492
905.54336 0.04517
903.48997 0.04500
901.43658 0.04429
899.38320 0.04353
897.32981 0.04317
895.27642 0.04274
893.22304 0.04175
891.16965 0.04047
889.11627 0.03929
887.06288 0.03778
885.00949 0.03551
882.95611 0.03301
880.90272 0.03038
878.84933 0.02745
876.79595 0.02508
874.74256 0.02337
872.68918 0.02174
870.63579 0.02048
868.58240 0.01964
866.52902 0.01893
864.47563 0.01763
862.42224 0.01500
860.36886 0.01215
858.31547 0.01107
856.26208 0.01134
854.20870 0.01143
852.15531 0.01127
850.10193 0.01096
848.04854 0.01060
845.99515 0.01016
843.94177 0.00963
841.88838 0.00964
839.83499 0.00991
837.78161 0.01006
835.72822 0.01019
833.67484 0.00997
831.62145 0.00982
829.56806 0.01055
827.51468 0.01173
825.46129 0.01227
823.40790 0.01176
821.35452 0.01057
819.30113 0.00954
817.24775 0.00978
815.19436 0.01134
813.14097 0.01425
811.08759 0.01844
809.03420 0.02186
806.98081 0.02307
804.92743 0.02235
802.87404 0.02063
800.82065 0.01937
798.76727 0.01761
796.71388 0.01456
794.66050 0.01281
792.60711 0.01340
790.55372 0.01532
788.50034 0.01619
786.44695 0.01426
784.39356 0.01270
782.34018 0.01385
780.28679 0.01524
778.23341 0.01485
776.18002 0.01435
774.12663 0.01491
772.07325 0.01429
770.01986 0.01183
767.96647 0.01057
765.91309 0.01262
763.85970 0.01630
761.80632 0.01836
759.75293 0.01721
757.69954 0.01506
755.64616 0.01519
753.59277 0.01580
751.53938 0.01327
749.48600 0.01076
747.43261 0.01262
745.37922 0.01466
743.32584 0.01361
741.27245 0.01301
739.21907 0.01388
737.16568 0.01544
735.11229 0.01620
733.05891 0.01583
731.00552 0.01556
728.95213 0.01374
726.89875 0.01249
724.84536 0.01321
722.79198 0.01007
720.73859 0.00288
718.68520 0.00000
716.63182 0.00206
714.57843 0.00297
712.52504 0.00475
710.47166 0.01079
708.41827 0.01621
706.36489 0.01435
704.31150 0.00496
702.25811 0.00000
700.20473 0.00384
698.15134 0.00630
696.09795 0.00415
694.04457 0.00428
691.99118 0.00610
689.93779 0.00817
687.88441 0.01049
685.83102 0.01013
683.77764 0.00775
681.72425 0.00625
679.67086 0.00000
