3997.94312 0.00000
3995.88973 0.00020
3993.83634 0.00017
3991.78296 0.00028
3989.72957 0.00024
3987.67618 0.00012
3985.62280 0.00035
3983.56941 0.00043
3981.51603 0.00018
3979.46264 0.00032
3977.40925 0.00058
3975.35587 0.00036
3973.30248 0.00012
3971.24909 0.00018
3969.19571 0.00027
3967.14232 0.00026
3965.08893 0.00035
3963.03555 0.00081
3960.98216 0.00116
3958.92878 0.00120
3956.87539 0.00121
3954.82200 0.00109
3952.76862 0.00086
3950.71523 0.00061
3948.66184 0.00029
3946.60846 0.00037
3944.55507 0.00070
3942.50169 0.00066
3940.44830 0.00068
3938.39491 0.00106
3936.34153 0.00140
3934.28814 0.00161
3932.23475 0.00170
3930.18137 0.00172
3928.12798 0.00198
3926.07460 0.00242
3924.02121 0.00255
3921.96782 0.00243
3919.91444 0.00229
3917.86105 0.00197
3915.80766 0.00198
3913.75428 0.00247
3911.70089 0.00284
3909.64750 0.00300
3907.59412 0.00278
3905.54073 0.00184
3903.48735 0.00080
3901.43396 0.00019
3899.38057 0.00000
3897.32719 0.00097
3895.27380 0.00254
3893.22041 0.00292
3891.16703 0.00192
3889.11364 0.00172
3887.06026 0.00224
3885.00687 0.00227
3882.95348 0.00234
3880.90010 0.00237
3878.84671 0.00232
3876.79332 0.00262
3874.73994 0.00258
3872.68655 0.00195
3870.63317 0.00144
3868.57978 0.00168
3866.52639 0.00220
3864.47301 0.00224
3862.41962 0.00244
3860.36623 0.00299
3858.31285 0.00305
3856.25946 0.00255
3854.20607 0.00140
3852.15269 0.00000
3850.09930 0.00048
3848.04592 0.00191
3845.99253 0.00283
3843.93914 0.00269
3841.88576 0.00219
3839.83237 0.00168
3837.77898 0.00101
3835.72560 0.00090
3833.67221 0.00150
3831.61883 0.00217
3829.56544 0.00258
3827.51205 0.00264
3825.45867 0.00246
3823.40528 0.00248
3821.35189 0.00210
3819.29851 0.00180
3817.24512 0.00217
3815.19174 0.00186
3813.13835 0.00156
3811.08496 0.00195
3809.03158 0.00224
3806.97819 0.00168
3804.92480 0.00118
3802.87142 0.00113
3800.81803 0.00098
3798.76464 0.00133
3796.71126 0.00215
3794.65787 0.00306
3792.60449 0.00340
3790.55110 0.00311
3788.49771 0.00283
3786.44433 0.00264
3784.39094 0.00253
3782.33755 0.00285
3780.28417 0.00281
3778.23078 0.00226
3776.17740 0.00234
3774.12401 0.00273
3772.07062 0.00263
3770.01724 0.00200
3767.96385 0.00164
3765.91046 0.00169
3763.85708 0.00193
3761.80369 0.00234
3759.75031 0.00239
3757.69692 0.00217
3755.64353 0.00242
3753.59015 0.00280
3751.53676 0.00205
3749.48337 0.00051
3747.42999 0.00020
3745.37660 0.00002
3743.32321 0.00000
3741.26983 0.00092
3739.21644 0.00160
3737.16306 0.00147
3735.10967 0.00110
3733.05628 0.00116
3731.00290 0.00158
3728.94951 0.00198
3726.89612 0.00177
3724.84274 0.00119
3722.78935 0.00118
3720.73597 0.00165
3718.68258 0.00192
3716.62919 0.00173
3714.57581 0.00127
3712.52242 0.00046
3710.46903 0.00001
3708.41565 0.00106
3706.36226 0.00235
3704.30888 0.00290
3702.25549 0.00244
3700.20210 0.00175
3698.14872 0.00171
3696.09533 0.00187
3694.04194 0.00187
3691.98856 0.00144
3689.93517 0.00035
3687.88179 0.00000
3685.82840 0.00100
3683.77501 0.00212
3681.72163 0.00263
3679.66824 0.00258
3677.61485 0.00207
3675.56147 0.00112
3673.50808 0.00150
3671.45469 0.00254
3669.40131 0.00246
3667.34792 0.00209
3665.29454 0.00236
3663.24115 0.00292
3661.18776 0.00340
3659.13438 0.00341
3657.08099 0.00296
3655.02760 0.00257
3652.97422 0.00231
3650.92083 0.00151
3648.86745 0.00064
3646.81406 0.00157
3644.76067 0.00339
3642.70729 0.00477
3640.65390 0.00529
3638.60051 0.00527
3636.54713 0.00493
3634.49374 0.00423
3632.44036 0.00357
3630.38697 0.00272
3628.33358 0.00170
3626.28020 0.00227
3624.22681 0.00347
3622.17342 0.00444
3620.12004 0.00486
3618.06665 0.00472
3616.01326 0.00475
3613.95988 0.00472
3611.90649 0.00429
3609.85311 0.00398
3607.79972 0.00440
3605.74633 0.00512
3603.69295 0.00535
3601.63956 0.00528
3599.58617 0.00502
3597.53279 0.00452
3595.47940 0.00385
3593.42602 0.00337
3591.37263 0.00345
3589.31924 0.00341
3587.26586 0.00302
3585.21247 0.00331
3583.15908 0.00406
3581.10570 0.00447
3579.05231 0.00442
3576.99893 0.00404
3574.94554 0.00378
3572.89215 0.00394
3570.83877 0.00390
3568.78538 0.00310
3566.73199 0.00211
3564.67861 0.00243
3562.62522 0.00339
3560.57183 0.00411
3558.51845 0.00459
3556.46506 0.00473
3554.41168 0.00454
3552.35829 0.00415
3550.30490 0.00400
3548.25152 0.00382
3546.19813 0.00327
3544.14474 0.00329
3542.09136 0.00420
3540.03797 0.00489
3537.98459 0.00476
3535.93120 0.00440
3533.87781 0.00416
3531.82443 0.00398
3529.77104 0.00395
3527.71765 0.00400
3525.66427 0.00367
3523.61088 0.00296
3521.55750 0.00260
3519.50411 0.00263
3517.45072 0.00288
3515.39734 0.00346
3513.34395 0.00425
3511.29056 0.00455
3509.23718 0.00380
3507.18379 0.00296
3505.13040 0.00283
3503.07702 0.00321
3501.02363 0.00377
3498.97025 0.00386
3496.91686 0.00366
3494.86347 0.00372
3492.81009 0.00405
3490.75670 0.00423
3488.70331 0.00362
3486.64993 0.00265
3484.59654 0.00227
3482.54316 0.00258
3480.48977 0.00273
3478.43638 0.00226
3476.38300 0.00222
3474.32961 0.00296
3472.27622 0.00338
3470.22284 0.00312
3468.16945 0.00270
3466.11607 0.00246
3464.06268 0.00251
3462.00929 0.00268
3459.95591 0.00243
3457.90252 0.00179
3455.84913 0.00159
3453.79575 0.00178
3451.74236 0.00188
3449.68897 0.00189
3447.63559 0.00136
3445.58220 0.00073
3443.52882 0.00087
3441.47543 0.00138
3439.42204 0.00187
3437.36866 0.00193
3435.31527 0.00105
3433.26188 0.00019
3431.20850 0.00032
3429.15511 0.00077
3427.10173 0.00115
3425.04834 0.00162
3422.99495 0.00179
3420.94157 0.00135
3418.88818 0.00111
3416.83479 0.00129
3414.78141 0.00117
3412.72802 0.00102
3410.67464 0.00116
3408.62125 0.00111
3406.56786 0.00093
3404.51448 0.00125
3402.46109 0.00171
3400.40770 0.00162
3398.35432 0.00126
3396.30093 0.00119
3394.24754 0.00153
3392.19416 0.00198
3390.14077 0.00234
3388.08739 0.00251
3386.03400 0.00251
3383.98061 0.00226
3381.92723 0.00192
3379.87384 0.00199
3377.82045 0.00235
3375.76707 0.00250
3373.71368 0.00242
3371.66030 0.00245
3369.60691 0.00283
3367.55352 0.00301
3365.50014 0.00260
3363.44675 0.00235
3361.39336 0.00274
3359.33998 0.00319
3357.28659 0.00320
3355.23321 0.00278
3353.17982 0.00256
3351.12643 0.00293
3349.07305 0.00336
3347.01966 0.00357
3344.96627 0.00348
3342.91289 0.00318
3340.85950 0.00314
3338.80611 0.00328
3336.75273 0.00331
3334.69934 0.00323
3332.64596 0.00288
3330.59257 0.00249
3328.53918 0.00242
3326.48580 0.00260
3324.43241 0.00294
3322.37902 0.00340
3320.32564 0.00383
3318.27225 0.00409
3316.21887 0.00396
3314.16548 0.00358
3312.11209 0.00327
3310.05871 0.00294
3308.00532 0.00260
3305.95193 0.00215
3303.89855 0.00168
3301.84516 0.00186
3299.79178 0.00253
3297.73839 0.00296
3295.68500 0.00313
3293.63162 0.00324
3291.57823 0.00310
3289.52484 0.00272
3287.47146 0.00262
3285.41807 0.00270
3283.36469 0.00246
3281.31130 0.00218
3279.25791 0.00227
3277.20453 0.00270
3275.15114 0.00295
3273.09775 0.00281
3271.04437 0.00267
3268.99098 0.00261
3266.93759 0.00275
3264.88421 0.00314
3262.83082 0.00335
3260.77744 0.00323
3258.72405 0.00302
3256.67066 0.00279
3254.61728 0.00241
3252.56389 0.00193
3250.51050 0.00185
3248.45712 0.00245
3246.40373 0.00280
3244.35035 0.00255
3242.29696 0.00257
3240.24357 0.00303
3238.19019 0.00324
3236.13680 0.00299
3234.08341 0.00273
3232.03003 0.00256
3229.97664 0.00222
3227.92326 0.00195
3225.86987 0.00211
3223.81648 0.00241
3221.76310 0.00247
3219.70971 0.00246
3217.65632 0.00253
3215.60294 0.00249
3213.54955 0.00222
3211.49616 0.00200
3209.44278 0.00224
3207.38939 0.00238
3205.33601 0.00214
3203.28262 0.00212
3201.22923 0.00218
3199.17585 0.00217
3197.12246 0.00232
3195.06907 0.00241
3193.01569 0.00251
3190.96230 0.00256
3188.90892 0.00223
3186.85553 0.00192
3184.80214 0.00191
3182.74876 0.00189
3180.69537 0.00177
3178.64198 0.00172
3176.58860 0.00184
3174.53521 0.00182
3172.48183 0.00155
3170.42844 0.00143
3168.37505 0.00147
3166.32167 0.00138
3164.26828 0.00133
3162.21489 0.00129
3160.16151 0.00116
3158.10812 0.00120
3156.05473 0.00148
3154.00135 0.00174
3151.94796 0.00189
3149.89458 0.00190
3147.84119 0.00157
3145.78780 0.00109
3143.73442 0.00082
3141.68103 0.00077
3139.62764 0.00076
3137.57426 0.00067
3135.52087 0.00064
3133.46749 0.00080
3131.41410 0.00094
3129.36071 0.00090
3127.30733 0.00062
3125.25394 0.00034
3123.20055 0.00042
3121.14717 0.00064
3119.09378 0.00078
3117.04040 0.00116
3114.98701 0.00161
3112.93362 0.00146
3110.88024 0.00098
3108.82685 0.00049
3106.77346 0.00000
3104.72008 0.00002
3102.66669 0.00055
3100.61330 0.00093
3098.55992 0.00099
3096.50653 0.00099
3094.45315 0.00097
3092.39976 0.00086
3090.34637 0.00081
3088.29299 0.00087
3086.23960 0.00099
3084.18621 0.00108
3082.13283 0.00080
3080.07944 0.00030
3078.02606 0.00015
3075.97267 0.00041
3073.91928 0.00079
3071.86590 0.00084
3069.81251 0.00068
3067.75912 0.00074
3065.70574 0.00078
3063.65235 0.00055
3061.59897 0.00032
3059.54558 0.00029
3057.49219 0.00047
3055.43881 0.00070
3053.38542 0.00099
3051.33203 0.00134
3049.27865 0.00151
3047.22526 0.00138
3045.17187 0.00101
3043.11849 0.00066
3041.06510 0.00047
3039.01172 0.00029
3036.95833 0.00034
3034.90494 0.00067
3032.85156 0.00082
3030.79817 0.00055
3028.74478 0.00018
3026.69140 0.00000
3024.63801 0.00018
3022.58463 0.00049
3020.53124 0.00060
3018.47785 0.00071
3016.42447 0.00083
3014.37108 0.00090
3012.31769 0.00091
3010.26431 0.00077
3008.21092 0.00066
3006.15754 0.00059
3004.10415 0.00051
3002.05076 0.00047
2999.99738 0.00055
2997.94399 0.00088
2995.89060 0.00120
2993.83722 0.00140
2991.78383 0.00167
2989.73044 0.00210
2987.67706 0.00236
2985.62367 0.00214
2983.57029 0.00206
2981.51690 0.00269
2979.46351 0.00341
2977.41013 0.00386
2975.35674 0.00445
2973.30335 0.00532
2971.24997 0.00622
2969.19658 0.00696
2967.14320 0.00747
2965.08981 0.00780
2963.03642 0.00790
2960.98304 0.00784
2958.92965 0.00770
2956.87626 0.00739
2954.82288 0.00717
2952.76949 0.00709
2950.71611 0.00686
2948.66272 0.00669
2946.60933 0.00688
2944.55595 0.00739
2942.50256 0.00793
2940.44917 0.00814
2938.39579 0.00825
2936.34240 0.00871
2934.28901 0.00924
2932.23563 0.00937
2930.18224 0.00917
2928.12886 0.00899
2926.07547 0.00907
2924.02208 0.00923
2921.96870 0.00901
2919.91531 0.00868
2917.86192 0.00864
2915.80854 0.00846
2913.75515 0.00779
2911.70177 0.00705
2909.64838 0.00649
2907.59499 0.00609
2905.54161 0.00578
2903.48822 0.00542
2901.43483 0.00502
2899.38145 0.00464
2897.32806 0.00428
2895.27468 0.00398
2893.22129 0.00373
2891.16790 0.00334
2889.11452 0.00303
2887.06113 0.00314
2885.00774 0.00323
2882.95436 0.00305
2880.90097 0.00318
2878.84758 0.00366
2876.79420 0.00392
2874.74081 0.00394
2872.68743 0.00400
2870.63404 0.00402
2868.58065 0.00388
2866.52727 0.00358
2864.47388 0.00326
2862.42049 0.00308
2860.36711 0.00304
2858.31372 0.00292
2856.26034 0.00260
2854.20695 0.00238
2852.15356 0.00223
2850.10018 0.00192
2848.04679 0.00174
2845.99340 0.00175
2843.94002 0.00162
2841.88663 0.00126
2839.83325 0.00089
2837.77986 0.00063
2835.72647 0.00054
2833.67309 0.00044
2831.61970 0.00020
2829.56631 0.00015
2827.51293 0.00038
2825.45954 0.00053
2823.40616 0.00049
2821.35277 0.00035
2819.29938 0.00037
2817.24600 0.00047
2815.19261 0.00052
2813.13922 0.00072
2811.08584 0.00084
2809.03245 0.00059
2806.97906 0.00035
2804.92568 0.00034
2802.87229 0.00029
2800.81891 0.00035
2798.76552 0.00054
2796.71213 0.00045
2794.65875 0.00015
2792.60536 0.00008
2790.55197 0.00027
2788.49859 0.00038
2786.44520 0.00036
2784.39182 0.00031
2782.33843 0.00028
2780.28504 0.00020
2778.23166 0.00000
2776.17827 0.00003
2774.12488 0.00022
2772.07150 0.00020
2770.01811 0.00022
2767.96473 0.00044
2765.91134 0.00062
2763.85795 0.00051
2761.80457 0.00030
2759.75118 0.00037
2757.69779 0.00062
2755.64441 0.00077
2753.59102 0.00072
2751.53763 0.00057
2749.48425 0.00044
2747.43086 0.00043
2745.37748 0.00055
2743.32409 0.00065
2741.27070 0.00057
2739.21732 0.00033
2737.16393 0.00013
2735.11054 0.00011
2733.05716 0.00031
2731.00377 0.00061
2728.95039 0.00072
2726.89700 0.00068
2724.84361 0.00074
2722.79023 0.00082
2720.73684 0.00066
2718.68345 0.00041
2716.63007 0.00022
2714.57668 0.00006
2712.52330 0.00000
2710.46991 0.00003
2708.41652 0.00010
2706.36314 0.00028
2704.30975 0.00051
2702.25636 0.00068
2700.20298 0.00073
2698.14959 0.00053
2696.09620 0.00027
2694.04282 0.00022
2691.98943 0.00028
2689.93605 0.00040
2687.88266 0.00050
2685.82927 0.00043
2683.77589 0.00018
2681.72250 0.00003
2679.66911 0.00001
2677.61573 0.00000
2675.56234 0.00008
2673.50896 0.00023
2671.45557 0.00030
2669.40218 0.00032
2667.34880 0.00033
2665.29541 0.00036
2663.24202 0.00041
2661.18864 0.00045
2659.13525 0.00044
2657.08187 0.00039
2655.02848 0.00035
2652.97509 0.00034
2650.92171 0.00036
2648.86832 0.00035
2646.81493 0.00036
2644.76155 0.00037
2642.70816 0.00035
2640.65477 0.00032
2638.60139 0.00035
2636.54800 0.00039
2634.49462 0.00043
2632.44123 0.00054
2630.38784 0.00065
2628.33446 0.00068
2626.28107 0.00063
2624.22768 0.00053
2622.17430 0.00041
2620.12091 0.00028
2618.06753 0.00019
2616.01414 0.00016
2613.96075 0.00024
2611.90737 0.00046
2609.85398 0.00064
2607.80059 0.00048
2605.74721 0.00013
2603.69382 0.00000
2601.64044 0.00016
2599.58705 0.00044
2597.53366 0.00062
2595.48028 0.00054
2593.42689 0.00037
2591.37350 0.00038
2589.32012 0.00043
2587.26673 0.00047
2585.21334 0.00064
2583.15996 0.00075
2581.10657 0.00056
2579.05319 0.00027
2576.99980 0.00019
2574.94641 0.00038
2572.89303 0.00052
2570.83964 0.00042
2568.78625 0.00027
2566.73287 0.00024
2564.67948 0.00025
2562.62610 0.00032
2560.57271 0.00041
2558.51932 0.00043
2556.46594 0.00044
2554.41255 0.00039
2552.35916 0.00020
2550.30578 0.00008
2548.25239 0.00014
2546.19901 0.00032
2544.14562 0.00062
2542.09223 0.00085
2540.03885 0.00076
2537.98546 0.00056
2535.93207 0.00054
2533.87869 0.00062
2531.82530 0.00074
2529.77191 0.00086
2527.71853 0.00083
2525.66514 0.00070
2523.61176 0.00053
2521.55837 0.00037
2519.50498 0.00034
2517.45160 0.00047
2515.39821 0.00062
2513.34482 0.00059
2511.29144 0.00054
2509.23805 0.00066
2507.18467 0.00081
2505.13128 0.00077
2503.07789 0.00054
2501.02451 0.00022
2498.97112 0.00000
2496.91773 0.00010
2494.86435 0.00039
2492.81096 0.00050
2490.75758 0.00043
2488.70419 0.00043
2486.65080 0.00054
2484.59742 0.00060
2482.54403 0.00058
2480.49064 0.00053
2478.43726 0.00033
2476.38387 0.00007
2474.33048 0.00008
2472.27710 0.00034
2470.22371 0.00050
2468.17033 0.00039
2466.11694 0.00021
2464.06355 0.00014
2462.01017 0.00009
2459.95678 0.00017
2457.90339 0.00037
2455.85001 0.00034
2453.79662 0.00013
2451.74324 0.00014
2449.68985 0.00028
2447.63646 0.00030
2445.58308 0.00029
2443.52969 0.00029
2441.47630 0.00030
2439.42292 0.00031
2437.36953 0.00033
2435.31615 0.00040
2433.26276 0.00042
2431.20937 0.00040
2429.15599 0.00046
2427.10260 0.00051
2425.04921 0.00043
2422.99583 0.00032
2420.94244 0.00039
2418.88906 0.00040
2416.83567 0.00019
2414.78228 0.00000
2412.72890 0.00004
2410.67551 0.00034
2408.62212 0.00063
2406.56874 0.00062
2404.51535 0.00061
2402.46196 0.00060
2400.40858 0.00060
2398.35519 0.00059
2396.30181 0.00058
2394.24842 0.00058
2392.19503 0.00057
2390.14165 0.00057
2388.08826 0.00056
2386.03487 0.00056
2383.98149 0.00055
2381.92810 0.00055
2379.87472 0.00055
2377.82133 0.00054
2375.76794 0.00054
2373.71456 0.00054
2371.66117 0.00054
2369.60778 0.00054
2367.55440 0.00054
2365.50101 0.00054
2363.44763 0.00054
2361.39424 0.00054
2359.34085 0.00054
2357.28747 0.00054
2355.23408 0.00055
2353.18069 0.00055
2351.12731 0.00055
2349.07392 0.00056
2347.02053 0.00056
2344.96715 0.00057
2342.91376 0.00057
2340.86038 0.00058
2338.80699 0.00058
2336.75360 0.00059
2334.70022 0.00060
2332.64683 0.00060
2330.59344 0.00061
2328.54006 0.00062
2326.48667 0.00063
2324.43329 0.00064
2322.37990 0.00065
2320.32651 0.00066
2318.27313 0.00067
2316.21974 0.00068
2314.16635 0.00069
2312.11297 0.00071
2310.05958 0.00067
2308.00620 0.00056
2305.95281 0.00035
2303.89942 0.00036
2301.84604 0.00054
2299.79265 0.00050
2297.73926 0.00039
2295.68588 0.00042
2293.63249 0.00042
2291.57910 0.00029
2289.52572 0.00005
2287.47233 0.00000
2285.41895 0.00013
2283.36556 0.00020
2281.31217 0.00025
2279.25879 0.00045
2277.20540 0.00079
2275.15201 0.00101
2273.09863 0.00083
2271.04524 0.00056
2268.99186 0.00060
2266.93847 0.00098
2264.88508 0.00135
2262.83170 0.00164
2260.77831 0.00228
2258.72492 0.00339
2256.67154 0.00496
2254.61815 0.00720
2252.56477 0.01002
2250.51138 0.01326
2248.45799 0.01665
2246.40461 0.01973
2244.35122 0.02197
2242.29783 0.02272
2240.24445 0.02149
2238.19106 0.01839
2236.13767 0.01424
2234.08429 0.01026
2232.03090 0.00737
2229.97752 0.00560
2227.92413 0.00460
2225.87074 0.00403
2223.81736 0.00374
2221.76397 0.00379
2219.71058 0.00391
2217.65720 0.00384
2215.60381 0.00366
2213.55043 0.00345
2211.49704 0.00329
2209.44365 0.00339
2207.39027 0.00362
2205.33688 0.00371
2203.28349 0.00367
2201.23011 0.00363
2199.17672 0.00365
2197.12334 0.00363
2195.06995 0.00347
2193.01656 0.00333
2190.96318 0.00306
2188.90979 0.00263
2186.85640 0.00238
2184.80302 0.00220
2182.74963 0.00201
2180.69624 0.00193
2178.64286 0.00168
2176.58947 0.00116
2174.53609 0.00082
2172.48270 0.00086
2170.42931 0.00101
2168.37593 0.00106
2166.32254 0.00103
2164.26915 0.00095
2162.21577 0.00081
2160.16238 0.00066
2158.10900 0.00059
2156.05561 0.00062
2154.00222 0.00057
2151.94884 0.00037
2149.89545 0.00034
2147.84206 0.00047
2145.78868 0.00037
2143.73529 0.00010
2141.68191 0.00000
2139.62852 0.00005
2137.57513 0.00020
2135.52175 0.00037
2133.46836 0.00044
2131.41497 0.00045
2129.36159 0.00037
2127.30820 0.00015
2125.25481 0.00001
2123.20143 0.00012
2121.14804 0.00029
2119.09466 0.00029
2117.04127 0.00022
2114.98788 0.00034
2112.93450 0.00050
2110.88111 0.00043
2108.82772 0.00025
2106.77434 0.00033
2104.72095 0.00059
2102.66757 0.00072
2100.61418 0.00080
2098.56079 0.00086
2096.50741 0.00078
2094.45402 0.00061
2092.40063 0.00048
2090.34725 0.00040
2088.29386 0.00030
2086.24048 0.00014
2084.18709 0.00001
2082.13370 0.00001
2080.08032 0.00011
2078.02693 0.00027
2075.97354 0.00020
2073.92016 0.00000
2071.86677 0.00006
2069.81338 0.00029
2067.76000 0.00046
2065.70661 0.00051
2063.65323 0.00033
2061.59984 0.00022
2059.54645 0.00039
2057.49307 0.00045
2055.43968 0.00023
2053.38629 0.00016
2051.33291 0.00030
2049.27952 0.00049
2047.22614 0.00066
2045.17275 0.00065
2043.11936 0.00046
2041.06598 0.00043
2039.01259 0.00059
2036.95920 0.00053
2034.90582 0.00019
2032.85243 0.00000
2030.79905 0.00009
2028.74566 0.00024
2026.69227 0.00024
2024.63889 0.00012
2022.58550 0.00011
2020.53211 0.00026
2018.47873 0.00033
2016.42534 0.00022
2014.37195 0.00014
2012.31857 0.00025
2010.26518 0.00048
2008.21180 0.00050
2006.15841 0.00022
2004.10502 0.00000
2002.05164 0.00005
1999.99825 0.00024
1997.94486 0.00040
1995.89148 0.00054
1993.83809 0.00056
1991.78471 0.00031
1989.73132 0.00010
1987.67793 0.00013
1985.62455 0.00021
1983.57116 0.00032
1981.51777 0.00038
1979.46439 0.00026
1977.41100 0.00017
1975.35762 0.00025
1973.30423 0.00036
1971.25084 0.00047
1969.19746 0.00044
1967.14407 0.00030
1965.09068 0.00035
1963.03730 0.00049
1960.98391 0.00051
1958.93053 0.00050
1956.87714 0.00044
1954.82375 0.00040
1952.77037 0.00052
1950.71698 0.00067
1948.66359 0.00061
1946.61021 0.00033
1944.55682 0.00012
1942.50343 0.00012
1940.45005 0.00036
1938.39666 0.00060
1936.34328 0.00072
1934.28989 0.00078
1932.23650 0.00078
1930.18312 0.00077
1928.12973 0.00068
1926.07634 0.00042
1924.02296 0.00016
1921.96957 0.00017
1919.91619 0.00037
1917.86280 0.00041
1915.80941 0.00043
1913.75603 0.00053
1911.70264 0.00043
1909.64925 0.00021
1907.59587 0.00021
1905.54248 0.00025
1903.48910 0.00017
1901.43571 0.00018
1899.38232 0.00037
1897.32894 0.00055
1895.27555 0.00044
1893.22216 0.00019
1891.16878 0.00000
1889.11539 0.00009
1887.06200 0.00053
1885.00862 0.00074
1882.95523 0.00072
1880.90185 0.00081
1878.84846 0.00083
1876.79507 0.00067
1874.74169 0.00056
1872.68830 0.00060
1870.63491 0.00049
1868.58153 0.00018
1866.52814 0.00022
1864.47476 0.00058
1862.42137 0.00070
1860.36798 0.00054
1858.31460 0.00049
1856.26121 0.00077
1854.20782 0.00109
1852.15444 0.00117
1850.10105 0.00101
1848.04767 0.00067
1845.99428 0.00019
1843.94089 0.00000
1841.88751 0.00033
1839.83412 0.00052
1837.78073 0.00044
1835.72735 0.00059
1833.67396 0.00078
1831.62057 0.00056
1829.56719 0.00017
1827.51380 0.00000
1825.46042 0.00003
1823.40703 0.00038
1821.35364 0.00061
1819.30026 0.00045
1817.24687 0.00032
1815.19348 0.00031
1813.14010 0.00019
1811.08671 0.00000
1809.03333 0.00002
1806.97994 0.00025
1804.92655 0.00035
1802.87317 0.00013
1800.81978 0.00000
1798.76639 0.00024
1796.71301 0.00061
1794.65962 0.00073
1792.60624 0.00066
1790.55285 0.00108
1788.49946 0.00173
1786.44608 0.00192
1784.39269 0.00185
1782.33930 0.00197
1780.28592 0.00225
1778.23253 0.00250
1776.17914 0.00248
1774.12576 0.00208
1772.07237 0.00189
1770.01899 0.00258
1767.96560 0.00358
1765.91221 0.00448
1763.85883 0.00490
1761.80544 0.00493
1759.75205 0.00532
1757.69867 0.00592
1755.64528 0.00658
1753.59190 0.00721
1751.53851 0.00746
1749.48512 0.00768
1747.43174 0.00876
1745.37835 0.01047
1743.32496 0.01219
1741.27158 0.01382
1739.21819 0.01565
1737.16481 0.01728
1735.11142 0.01846
1733.05803 0.02025
1731.00465 0.02261
1728.95126 0.02477
1726.89787 0.02641
1724.84449 0.02744
1722.79110 0.02822
1720.73771 0.02877
1718.68433 0.02855
1716.63094 0.02809
1714.57756 0.02878
1712.52417 0.02970
1710.47078 0.03015
1708.41740 0.03005
1706.36401 0.02965
1704.31062 0.02963
1702.25724 0.02965
1700.20385 0.02869
1698.15047 0.02803
1696.09708 0.02862
1694.04369 0.02944
1691.99031 0.02987
1689.93692 0.02986
1687.88353 0.02981
1685.83015 0.02976
1683.77676 0.02988
1681.72338 0.03099
1679.66999 0.03242
1677.61660 0.03374
1675.56322 0.03511
1673.50983 0.03666
1671.45644 0.03788
1669.40306 0.03928
1667.34967 0.04129
1665.29628 0.04266
1663.24290 0.04316
1661.18951 0.04366
1659.13613 0.04440
1657.08274 0.04464
1655.02935 0.04407
1652.97597 0.04341
1650.92258 0.04391
1648.86919 0.04395
1646.81581 0.04355
1644.76242 0.04411
1642.70904 0.04497
1640.65565 0.04550
1638.60226 0.04577
1636.54888 0.04634
1634.49549 0.04851
1632.44210 0.05075
1630.38872 0.05234
1628.33533 0.05400
1626.28195 0.05597
1624.22856 0.05833
1622.17517 0.06171
1620.12179 0.06511
1618.06840 0.06832
1616.01501 0.07293
1613.96163 0.07779
1611.90824 0.08196
1609.85485 0.08636
1607.80147 0.09109
1605.74808 0.09545
1603.69470 0.09919
1601.64131 0.10266
1599.58792 0.10613
1597.53454 0.10927
1595.48115 0.11182
1593.42776 0.11370
1591.37438 0.11477
1589.32099 0.11522
1587.26761 0.11513
1585.21422 0.11407
1583.16083 0.11191
1581.10745 0.10912
1579.05406 0.10584
1577.00067 0.10084
1574.94729 0.09483
1572.89390 0.09113
1570.84052 0.08719
1568.78713 0.08193
1566.73374 0.07812
1564.68036 0.07510
1562.62697 0.07238
1560.57358 0.06921
1558.52020 0.06364
1556.46681 0.06119
1554.41342 0.06011
1552.36004 0.05842
1550.30665 0.05678
1548.25327 0.05542
1546.19988 0.05392
1544.14649 0.05169
1542.09311 0.04917
1540.03972 0.04695
1537.98633 0.04619
1535.93295 0.04585
1533.87956 0.04505
1531.82618 0.04466
1529.77279 0.04470
1527.71940 0.04424
1525.66602 0.04330
1523.61263 0.04210
1521.55924 0.04088
1519.50586 0.04063
1517.45247 0.04080
1515.39909 0.04096
1513.34570 0.04107
1511.29231 0.04074
1509.23893 0.03983
1507.18554 0.03900
1505.13215 0.04050
1503.07877 0.04207
1501.02538 0.04258
1498.97200 0.04251
1496.91861 0.04286
1494.86522 0.04401
1492.81184 0.04487
1490.75845 0.04499
1488.70506 0.04504
1486.65168 0.04566
1484.59829 0.04613
1482.54490 0.04605
1480.49152 0.04562
1478.43813 0.04513
1476.38475 0.04440
1474.33136 0.04333
1472.27797 0.04284
1470.22459 0.04364
1468.17120 0.04445
1466.11781 0.04517
1464.06443 0.04710
1462.01104 0.04984
1459.95766 0.05232
1457.90427 0.05608
1455.85088 0.06223
1453.79750 0.06654
1451.74411 0.06888
1449.69072 0.06980
1447.63734 0.06951
1445.58395 0.06882
1443.53057 0.06786
1441.47718 0.06644
1439.42379 0.06483
1437.37041 0.06287
1435.31702 0.06087
1433.26363 0.05978
1431.21025 0.05902
1429.15686 0.05825
1427.10347 0.05765
1425.05009 0.05699
1422.99670 0.05641
1420.94332 0.05604
1418.88993 0.05569
1416.83654 0.05608
1414.78316 0.05699
1412.72977 0.05779
1410.67638 0.05856
1408.62300 0.05937
1406.56961 0.06008
1404.51623 0.06119
1402.46284 0.06270
1400.40945 0.06411
1398.35607 0.06575
1396.30268 0.06800
1394.24929 0.07104
1392.19591 0.07445
1390.14252 0.07759
1388.08914 0.08085
1386.03575 0.08463
1383.98236 0.08839
1381.92898 0.09181
1379.87559 0.09479
1377.82220 0.09721
1375.76882 0.09918
1373.71543 0.10102
1371.66204 0.10253
1369.60866 0.10331
1367.55527 0.10333
1365.50189 0.10275
1363.44850 0.10152
1361.39511 0.09991
1359.34173 0.09863
1357.28834 0.09753
1355.23495 0.09629
1353.18157 0.09489
1351.12818 0.09341
1349.07480 0.09189
1347.02141 0.09049
1344.96802 0.08908
1342.91464 0.08744
1340.86125 0.08551
1338.80786 0.08368
1336.75448 0.08250
1334.70109 0.08154
1332.64771 0.08048
1330.59432 0.07944
1328.54093 0.07828
1326.48755 0.07695
1324.43416 0.07581
1322.38077 0.07485
1320.32739 0.07370
1318.27400 0.07245
1316.22061 0.07140
1314.16723 0.07055
1312.11384 0.06972
1310.06046 0.06890
1308.00707 0.06827
1305.95368 0.06799
1303.90030 0.06794
1301.84691 0.06789
1299.79352 0.06776
1297.74014 0.06754
1295.68675 0.06727
1293.63337 0.06718
1291.57998 0.06728
1289.52659 0.06740
1287.47321 0.06753
1285.41982 0.06776
1283.36643 0.06803
1281.31305 0.06834
1279.25966 0.06892
1277.20628 0.06980
1275.15289 0.07106
1273.09950 0.07323
1271.04612 0.07693
1268.99273 0.08290
1266.93934 0.09144
1264.88596 0.10134
1262.83257 0.10971
1260.77918 0.11377
1258.72580 0.11254
1256.67241 0.10695
1254.61903 0.09905
1252.56564 0.09142
1250.51225 0.08578
1248.45887 0.08196
1246.40548 0.07917
1244.35209 0.07709
1242.29871 0.07560
1240.24532 0.07442
1238.19194 0.07355
1236.13855 0.07306
1234.08516 0.07279
1232.03178 0.07252
1229.97839 0.07201
1227.92500 0.07119
1225.87162 0.07036
1223.81823 0.06972
1221.76485 0.06917
1219.71146 0.06853
1217.65807 0.06776
1215.60469 0.06675
1213.55130 0.06555
1211.49791 0.06449
1209.44453 0.06352
1207.39114 0.06242
1205.33775 0.06139
1203.28437 0.06060
1201.23098 0.05989
1199.17760 0.05915
1197.12421 0.05861
1195.07082 0.05842
1193.01744 0.05857
1190.96405 0.05886
1188.91066 0.05892
1186.85728 0.05895
1184.80389 0.05923
1182.75051 0.05951
1180.69712 0.05983
1178.64373 0.06037
1176.59035 0.06092
1174.53696 0.06125
1172.48357 0.06142
1170.43019 0.06154
1168.37680 0.06157
1166.32342 0.06133
1164.27003 0.06086
1162.21664 0.06035
1160.16326 0.05954
1158.10987 0.05845
1156.05648 0.05750
1154.00310 0.05654
1151.94971 0.05532
1149.89632 0.05386
1147.84294 0.05223
1145.78955 0.05070
1143.73617 0.04975
1141.68278 0.04928
1139.62939 0.04871
1137.57601 0.04803
1135.52262 0.04764
1133.46923 0.04782
1131.41585 0.04834
1129.36246 0.04881
1127.30908 0.04938
1125.25569 0.05037
1123.20230 0.05198
1121.14892 0.05413
1119.09553 0.05633
1117.04214 0.05845
1114.98876 0.06085
1112.93537 0.06344
1110.88199 0.06581
1108.82860 0.06826
1106.77521 0.07093
1104.72183 0.07313
1102.66844 0.07461
1100.61505 0.07552
1098.56167 0.07587
1096.50828 0.07585
1094.45490 0.07549
1092.40151 0.07481
1090.34812 0.07403
1088.29474 0.07301
1086.24135 0.07156
1084.18796 0.06985
1082.13458 0.06813
1080.08119 0.06661
1078.02780 0.06519
1075.97442 0.06368
1073.92103 0.06219
1071.86765 0.06100
1069.81426 0.05991
1067.76087 0.05880
1065.70749 0.05795
1063.65410 0.05718
1061.60071 0.05621
1059.54733 0.05517
1057.49394 0.05441
1055.44056 0.05391
1053.38717 0.05321
1051.33378 0.05241
1049.28040 0.05190
1047.22701 0.05174
1045.17362 0.05178
1043.12024 0.05181
1041.06685 0.05208
1039.01347 0.05277
1036.96008 0.05340
1034.90669 0.05376
1032.85331 0.05396
1030.79992 0.05420
1028.74653 0.05482
1026.69315 0.05553
1024.63976 0.05601
1022.58637 0.05651
1020.53299 0.05686
1018.47960 0.05636
1016.42622 0.05489
1014.37283 0.05284
1012.31944 0.05000
1010.26606 0.04594
1008.21267 0.04086
1006.15928 0.03549
1004.10590 0.03050
1002.05251 0.02616
999.99913 0.02259
997.94574 0.01964
995.89235 0.01679
993.83897 0.01403
991.78558 0.01183
989.73219 0.01010
987.67881 0.00863
985.62542 0.00754
983.57204 0.00673
981.51865 0.00612
979.46526 0.00591
977.41188 0.00573
975.35849 0.00545
973.30510 0.00538
971.25172 0.00550
969.19833 0.00573
967.14494 0.00592
965.09156 0.00590
963.03817 0.00582
960.98479 0.00584
958.93140 0.00571
956.87801 0.00550
954.82463 0.00548
952.77124 0.00522
950.71785 0.00471
948.66447 0.00450
946.61108 0.00445
944.55770 0.00404
942.50431 0.00332
940.45092 0.00278
938.39754 0.00236
936.34415 0.00199
934.29076 0.00188
932.23738 0.00205
930.18399 0.00218
928.13061 0.00195
926.07722 0.00143
924.02383 0.00077
921.97045 0.00018
919.91706 0.00000
917.86367 0.00016
915.81029 0.00016
913.75690 0.00000
911.70351 0.00012
909.65013 0.00042
907.59674 0.00045
905.54336 0.00061
903.48997 0.00081
901.43658 0.00045
899.38320 0.00000
897.32981 0.00048
895.27642 0.00141
893.22304 0.00162
891.16965 0.00172
889.11627 0.00255
887.06288 0.00337
885.00949 0.00327
882.95611 0.00288
880.90272 0.00325
878.84933 0.00407
876.79595 0.00456
874.74256 0.00485
872.68918 0.00566
870.63579 0.00678
868.58240 0.00733
866.52902 0.00722
864.47563 0.00713
862.42224 0.00693
860.36886 0.00623
858.31547 0.00573
856.26208 0.00567
854.20870 0.00524
852.15531 0.00496
850.10193 0.00580
848.04854 0.00665
845.99515 0.00637
843.94177 0.00547
841.88838 0.00490
839.83499 0.00537
837.78161 0.00670
835.72822 0.00849
833.67484 0.01029
831.62145 0.01211
829.56806 0.01518
827.51468 0.01996
825.46129 0.02558
823.40790 0.03125
821.35452 0.03660
819.30113 0.04127
817.24775 0.04602
815.19436 0.05225
813.14097 0.05978
811.08759 0.06830
809.03420 0.07753
806.98081 0.08568
804.92743 0.09016
802.87404 0.09096
800.82065 0.09015
798.76727 0.08778
796.71388 0.08383
794.66050 0.07874
792.60711 0.07257
790.55372 0.06646
788.50034 0.06039
786.44695 0.05365
784.39356 0.04654
782.34018 0.03996
780.28679 0.03563
778.23341 0.03252
776.18002 0.02824
774.12663 0.02374
772.07325 0.02103
770.01986 0.02035
767.96647 0.01972
765.91309 0.01839
763.85970 0.01672
761.80632 0.01422
759.75293 0.01253
757.69954 0.01326
755.64616 0.01386
753.59277 0.01325
751.53938 0.01383
749.48600 0.01448
747.43261 0.01354
745.37922 0.01124
743.32584 0.00868
741.27245 0.00798
739.21907 0.00960
737.16568 0.01203
735.11229 0.01305
733.05891 0.01166
731.00552 0.00874
728.95213 0.00767
726.89875 0.00873
724.84536 0.00677
722.79198 0.00259
720.73859 0.00240
718.68520 0.00648
716.63182 0.01168
714.57843 0.01560
712.52504 0.01558
710.47166 0.01269
708.41827 0.01127
706.36489 0.01105
704.31150 0.00895
702.25811 0.00690
700.20473 0.00776
698.15134 0.01156
696.09795 0.01674
694.04457 0.02012
691.99118 0.02054
689.93779 0.02043
687.88441 0.02176
685.83102 0.02411
683.77764 0.02237
681.72425 0.01035
679.67086 0.00000
